replicate_id,T_HET
0,0.00018321176609925678
1,8.594436498500397e-05
2,7.697809779929345e-05
3,5.344906737221616e-05
4,0.0001545839500496555
5,5.295369747466846e-05
6,0.00015201609721529602
7,4.723562809516085e-05
8,5.967395308121876e-05
9,9.30160109326032e-05
10,0.00027392567018443443
11,0.00010931952567580993
12,9.290532110980101e-05
13,0.00021905124249626298
14,0.00012379505199205351
15,0.00014591120014504364
16,0.00020160785797407852
17,5.6043968339573936e-05
18,5.735103490763926e-05
19,0.00020042032018572609
20,0.00015360376073360413
21,0.0001221714108133521
22,4.918405981868201e-05
23,0.0002793542705833012
24,6.704004219897368e-05
25,0.00013542361929962682
26,7.739808893332977e-05
27,8.464316662342999e-05
28,0.00011459893786762456
29,0.00010120478909023954
30,0.00017449096469149513
31,0.00015067858022696327
32,5.063658808447767e-05
33,0.00014542622839776504
34,0.00010839949787435561
35,8.082611413736052e-05
36,0.00018758911621070143
37,0.00017931466820266488
38,0.00012178102937087549
39,0.00010191122664949496
40,0.0003262223279674425
41,5.334280496141878e-05
42,7.634924126185766e-05
43,0.00012373693460597003
44,4.120145697788799e-05
45,0.00017323423069468729
46,4.7286794634978404e-05
47,0.00011368288241287916
48,0.00019098589000656434
49,0.00016907092205116283
50,9.256952813251542e-05
51,6.388584105595125e-05
52,0.00012654433250527508
53,8.002140346352702e-05
54,6.156354122898156e-05
55,0.00014435969557716153
56,8.256839482414572e-05
57,0.00012423962726356268
58,8.710989378248656e-05
59,7.053121542221816e-05
60,0.00016356320911933337
61,0.000163077934129131
62,5.062290126805508e-05
63,0.00013543310500844987
64,9.033189892305248e-05
65,9.74299970863349e-05
66,6.365931896750029e-05
67,0.00014172927859103669
68,2.7514689841236846e-05
69,0.0001440289289812134
70,0.00014780321188152714
71,9.821775182161627e-05
72,0.0001444880996486694
73,9.615167233676151e-05
74,0.00016851330175776327
75,2.4621110478632295e-05
76,0.0001335901238817991
77,8.548115723279612e-05
78,0.00010542927071907575
79,6.918662404756883e-05
80,6.195834421063865e-05
81,0.00012594091382805175
82,3.714647938171904e-05
83,0.00011748682744877373
84,4.763129645328877e-05
85,5.1212905330553035e-05
86,8.241891093471263e-05
87,0.00012513343573592676
88,5.757047138228889e-05
89,0.00014532253869073696
90,0.00012026950907964195
91,0.00016069938133732396
92,0.00020147176859771162
93,0.00015641309578767515
94,0.00011804016185164754
95,8.825365025755713e-05
96,0.0001392128903343928
97,0.00017181140955716554
98,9.896881940348048e-05
99,8.544363082907496e-05
100,9.248373466662323e-05
101,0.0001237783409743651
102,0.0002383119354590648
103,0.00010253434911855917
104,0.0001216257263431883
105,0.00011939626889204992
106,7.123295613856753e-05
107,0.000257286122586135
108,6.582372847564664e-05
109,0.00014402257682957567
110,0.00021358581883621226
111,0.00012341291672348783
112,0.00011692854997847429
113,0.0001091737908605564
114,0.00018398083050803199
115,5.142123881489055e-05
116,6.494371014144072e-05
117,0.00020776993225314527
118,0.00013209492735322064
119,4.811542057395765e-05
120,0.00010732397974597236
121,0.0001291656801969792
122,0.0001093853139029592
123,6.685934510085106e-05
124,8.072066844340507e-05
125,8.670878461740715e-05
126,9.854691273131154e-05
127,0.0001284650947428127
128,0.00027190012279267706
129,7.164031231250471e-05
130,0.0001311447942901668
131,0.00021691122590645405
132,0.0001339344944450455
133,0.00010556828996045234
134,9.957948194166732e-05
135,0.0001402826922206951
136,0.00013610960191297902
137,0.0001058821388197671
138,0.00018111898321018668
139,4.008161693537098e-05
140,0.00010882590774629918
141,6.83142461712539e-05
142,6.292501410544987e-05
143,5.396570991727326e-05
144,0.00022447451660952283
145,0.00017709348115688668
146,0.0002520376148049885
147,0.00023483485533772007
148,0.00013416895363590198
149,0.00011643041274598254
150,7.545458111215849e-05
151,0.0001331560378179674
152,0.00010723612971529932
153,5.4633085448234714e-05
154,9.891864049969243e-05
155,6.463043876324948e-05
156,0.00015619763709720638
157,8.120571402197698e-05
158,5.81418545428864e-05
159,0.00013875028057534067
160,0.00017345990251212994
161,8.113634448854648e-05
162,2.2263550953875e-05
163,8.266141914736036e-05
164,4.692029805007186e-05
165,0.00011642732487580852
166,9.205107235441955e-05
167,0.0003222384963993754
168,5.021122523691482e-05
169,0.00012123816077304064
170,9.268524727166946e-05
171,0.00018385946360417933
172,8.217894544914283e-05
173,0.00022308354597514268
174,6.463398562940588e-05
175,7.342287524836101e-05
176,0.00015991014365403366
177,9.664518687981049e-05
178,7.980994400298511e-05
179,0.00015403396414182644
180,0.0002534050056718299
181,0.00012822190524271963
182,8.611098888087598e-05
183,9.297566445356926e-05
184,0.00014176433808260104
185,7.076267906710132e-05
186,0.00023193138077799114
187,0.00018612058644811288
188,0.0004201564549255998
189,0.00013478526780394244
190,8.48591371492573e-05
191,0.0001108388742477139
192,6.638661173208161e-05
193,4.883574312485684e-05
194,0.00013064382465229562
195,0.0001418603276309857
196,8.364718889672863e-05
197,0.00012005060220341706
198,8.007445787854337e-05
199,0.00010852661642502205
200,0.00012585858304052681
201,6.72942523459278e-05
202,0.00010653462700069879
203,7.295181264728361e-05
204,0.00013012378404734417
205,5.8846125682450265e-05
206,0.00021687390723489552
207,0.0001146901094512894
208,0.0001509773583577531
209,8.72330530242691e-05
210,0.00010413947648414294
211,0.00011233698273819951
212,3.817256585212406e-05
213,8.797297714380248e-05
214,4.9078305063514116e-05
215,3.9191820149157814e-05
216,0.00010665659476186459
217,5.702193016350867e-05
218,9.078282330024009e-05
219,0.0001452144081396577
220,0.00010280768215191073
221,0.00013150020875428737
222,0.0002894456395434257
223,4.0828435949386395e-05
224,7.582935832379793e-05
225,8.613208350997985e-05
226,0.00010050836231145766
227,0.00013587950493379122
228,0.00012345114738286756
229,0.00012598455567041272
230,8.018602833884366e-05
231,7.085096518246966e-05
232,9.170416523377785e-05
233,0.00023573190030301306
234,8.013546736156e-05
235,8.80661282456276e-05
236,9.810380389690005e-05
237,8.974908486541377e-05
238,0.00010125617573379201
239,0.0001692257115612697
240,0.00014026794710057824
241,0.0002606524625880473
242,9.818655966058677e-05
243,9.393859796581606e-05
244,8.278386864480697e-05
245,6.0335131244260154e-05
246,0.00010378853678355457
247,7.835678376861194e-05
248,0.00022654101422072865
249,4.021344320143203e-05
250,0.00021145940432206725
251,0.00026965333378759193
252,9.054690622250928e-05
253,0.00010134086504300878
254,4.627553016397999e-05
255,0.0001866749968327222
256,0.00012714985541333135
257,4.700612172398396e-05
258,0.00012788490423336216
259,0.00017852204781504673
260,0.0003428159168794528
261,8.088025321578315e-05
262,9.500348780898686e-05
263,8.00404878259103e-05
264,7.78957347636911e-05
265,9.918746330589504e-05
266,0.00016834982142393867
267,0.00014313935998852887
268,0.00018961570784670223
269,0.00011688406427417181
270,8.68826970499501e-05
271,0.00012496061862928167
272,7.770598665150429e-05
273,0.00013641669000426514
274,0.00015497713098597184
275,0.00013477751604943803
276,5.5096830339184924e-05
277,5.350024513538968e-05
278,0.00017311151556926717
279,2.2718104249203767e-05
280,7.762409490041922e-05
281,6.536636322155114e-05
282,0.00041753573245878527
283,0.00014376698603398095
284,8.679407997352992e-05
285,0.00013668232326410874
286,5.8649003910502293e-05
287,0.00015380973751398692
288,3.875294022939065e-05
289,7.383951188897413e-05
290,3.852508082627084e-05
291,7.937613615289089e-05
292,0.00014615502241032666
293,0.00012111646257510325
294,0.00010409341578779897
295,5.737187089195895e-05
296,0.0002109859494287536
297,7.966363617469508e-05
298,0.00014506201024706722
299,8.541764315357327e-05
300,8.857000281815798e-05
301,0.00014469214970619547
302,0.00010773322656254438
303,4.155637732807222e-05
304,0.0001283836974102963
305,3.057095570096898e-05
306,9.335184536092385e-05
307,0.00011446983258620383
308,8.113542689861077e-05
309,0.00022072666521701702
310,7.588957406774e-05
311,4.39706846354921e-05
312,4.546238046421526e-05
313,0.00013355537883194443
314,0.0001207524980028952
315,0.00024898242361217065
316,0.0001626389611177584
317,0.00037692569680278026
318,0.00018419894152738676
319,0.00012573056385639428
320,9.6070107668165e-05
321,0.00013556661813043876
322,7.748445059829634e-05
323,0.00018825303782752303
324,4.3824456282128053e-05
325,0.00012931825379269127
326,0.00016344264722667885
327,0.00016664729966921438
328,9.966546137942108e-05
329,8.993007151638627e-05
330,8.50213821714203e-05
331,0.00017569249714161035
332,6.98162557540796e-05
333,6.746067085356094e-05
334,8.186432569568203e-05
335,3.551629937132267e-05
336,8.332985078481444e-05
337,0.00022071535315315577
338,0.00014713050848148173
339,0.00012738996590929926
340,0.00012597744240052663
341,6.967604209007198e-05
342,0.00010793385242179141
343,0.00018564506228996034
344,9.273824947896287e-05
345,0.00017111559825939578
346,9.769181291786228e-05
347,9.226484543207649e-05
348,0.00013896034803226797
349,0.00010136870291114897
350,3.1832072071134755e-05
351,6.527453601363114e-05
352,0.00017109918399431024
353,0.00010261070561034818
354,0.00010093082711225878
355,0.00015295583270731323
356,0.00020984260485659568
357,4.553559440356406e-05
358,0.00016257475267392467
359,0.00018590464978895455
360,0.00015174981970039004
361,7.740403116672791e-05
362,4.5342937601833975e-05
363,6.726278421642141e-05
364,9.415679552725878e-05
365,0.00022096373992702405
366,0.00019465541304423714
367,0.0001421980448015405
368,0.00013639102376219466
369,0.00012754275584682157
370,0.00019479804613357603
371,0.00023872948009981838
372,0.0003131438965131462
373,0.00016737708274075353
374,0.0002131765036938021
375,0.00014144399643705314
376,0.0001430341905513399
377,0.00010161444024628293
378,0.0001902604432577979
379,0.00020447322513894302
380,9.863303868499159e-05
381,0.00011860233009990278
382,8.659305283512042e-05
383,7.119910651163388e-05
384,0.00013728103739904025
385,5.715428331611643e-05
386,0.00017488721705417103
387,0.0003504608180758857
388,0.00016127816946812597
389,6.644570020876868e-05
390,2.7842301395307165e-05
391,0.0001675508235299578
392,0.00010362717396825152
393,7.158534623300585e-05
394,8.343979386558968e-05
395,7.3517360733491e-05
396,4.6866293646606964e-05
397,8.839030800489919e-05
398,6.667059219301055e-05
399,7.601018398968178e-05
400,0.00016798477702661572
401,6.442613376721961e-05
402,0.00017758238111756881
403,9.534202135981375e-05
404,0.00012765121493963846
405,0.00011968683369003136
406,4.88227020098876e-05
407,9.209959864807389e-05
408,0.00014907697708881946
409,4.123882189223429e-05
410,0.00012413397014471653
411,6.067043379197848e-05
412,0.00024081137465254237
413,8.539318711840085e-05
414,5.966079073888441e-05
415,0.00011935552843552425
416,0.00012518441305936392
417,0.0001280955413992652
418,7.091254282099487e-05
419,6.332700569089721e-05
420,0.00014902567008743989
421,0.000200139369684648
422,0.00023583049444363146
423,0.00015999773205611887
424,7.766978125997072e-05
425,0.00025772409326662026
426,6.384247874333056e-05
427,7.745700870892545e-05
428,0.0002045598269377621
429,0.00012128618376526535
430,8.974372393111408e-05
431,0.0001265734524096223
432,0.0001240196063693169
433,9.76273384086789e-05
434,0.0001753910058088696
435,0.00028467225427529513
436,0.00022633793982834653
437,0.0002641238919780107
438,9.377777297262328e-05
439,9.289762916548722e-05
440,0.0001242889435429023
441,0.00022746936253249372
442,8.647672626276826e-05
443,0.00017601166241962954
444,3.501427253216734e-05
445,0.00014935370301998383
446,5.7619878047779035e-05
447,4.6939119261959994e-05
448,0.00014687157494164922
449,8.79502276789601e-05
450,9.610559944786269e-05
451,5.6945399318000105e-05
452,0.00012408048374121193
453,0.00017709443469978423
454,8.639623550674456e-05
455,0.00010814515710168767
456,8.243668299528456e-05
457,0.00023546091620155112
458,6.533922810571351e-05
459,7.36157365134957e-05
460,0.0003704324124876835
461,0.00021469254836550426
462,0.00014925212859603592
463,0.000253754743564912
464,7.450329397990784e-05
465,0.00011949351363306962
466,0.00022991865394325866
467,0.00014432675267140926
468,7.329747293155564e-05
469,0.00010340545629507966
470,0.00017224944798403384
471,0.00010686119767344735
472,0.00012959871326921233
473,8.148659763819016e-05
474,0.00020674071385207596
475,0.00012517459287894654
476,3.6246637606329624e-05
477,8.01472586178003e-05
478,0.00011304655829151241
479,9.111067143073986e-05
480,0.00023140463196755912
481,6.46540406948496e-05
482,9.661210164899558e-05
483,8.122122396846689e-05
484,9.78273897687128e-05
485,0.00017172477429982274
486,0.0001652463215617592
487,9.829003100473446e-05
488,0.0001756444536542483
489,0.00023154067418936395
490,9.924687031128783e-05
491,0.0001687482781707753
492,6.697914586075144e-05
493,4.766613308781036e-05
494,7.982289745358848e-05
495,6.789378479563823e-05
496,0.00011750049445792245
497,8.111869512463226e-05
498,8.170957160867175e-05
499,0.00010500720961563741
500,9.878725182301326e-05
501,9.143233050665748e-05
502,0.00011685647433834815
503,7.89337490187844e-05
504,0.0002567370060671546
505,9.894168229833862e-05
506,0.00017097835729481295
507,4.545501208308386e-05
508,5.317654656670077e-05
509,7.470718810910132e-05
510,0.0001686711832334398
511,0.00018875852255170405
512,0.00012250151517178204
513,5.3245644358743855e-05
514,8.511515490372488e-05
515,6.539142804300588e-05
516,0.00011946314796903246
517,0.0001325542199631158
518,0.0001453082772210893
519,0.00010774629742416179
520,5.7712024824653515e-05
521,5.741691032210285e-05
522,0.00016705105511042554
523,0.00016606953906453558
524,0.00017855729146502497
525,0.0001113737709429838
526,0.00011362299820696223
527,0.0002652757080342697
528,5.1217768443446314e-05
529,8.52578192170937e-05
530,0.00014130464732755782
531,0.00017454226693615224
532,7.147071313188567e-05
533,3.6763278325004855e-05
534,0.00016937352939328068
535,6.805344444331827e-05
536,0.00020238292754619998
537,0.00011282312796986725
538,6.893952353231883e-05
539,9.849385340632215e-05
540,8.353618464010566e-05
541,7.046349319157965e-05
542,6.857345018859077e-05
543,0.0001571486394356965
544,9.53678482614384e-05
545,0.00022407058344113082
546,0.0001576499441161353
547,0.0001928171416230416
548,0.00012912510755347403
549,0.00013588305758993946
550,0.00012231310196179738
551,0.00023553689043023663
552,0.00011281856213173343
553,0.0001210428443907761
554,0.00014498016453289155
555,0.00026034820364543903
556,0.00015938234286215936
557,7.843004573754634e-05
558,0.00011569742422302029
559,0.00012495182093056971
560,6.702495550500384e-05
561,0.0001345056853968962
562,6.765838636096325e-05
563,0.00018805869066200793
564,3.955603025077506e-05
565,3.720065691825229e-05
566,0.00010851717740798516
567,0.00017826864670443166
568,9.469446317723745e-05
569,7.483775799368284e-05
570,7.676748852306528e-05
571,0.00016552233982434686
572,9.859227600688067e-05
573,0.00016137791670246216
574,0.00020032655455622228
575,0.0002812485541185863
576,8.174159588425473e-05
577,0.00020382988111106707
578,0.0001156741149825588
579,0.00014733497652185594
580,8.143156228128243e-05
581,0.00021519120538272287
582,0.00011686214297800077
583,0.00013007038395082134
584,0.00017956901019192584
585,3.745820215491932e-05
586,7.182381504583969e-05
587,9.24339956523215e-05
588,0.00012422024069271752
589,0.00024632715299750753
590,8.146413055876411e-05
591,3.179325486359239e-05
592,0.00013288123933045376
593,4.168768356566923e-05
594,0.0001302613528010842
595,8.689649760036604e-05
596,0.0002644382227761844
597,6.322034931785106e-05
598,0.00011638532405261575
599,8.756356136660438e-05
600,0.00014929233955168381
601,4.322044750921233e-05
602,6.893709480635395e-05
603,0.00016575955955691713
604,3.943470790941389e-05
605,3.3341877885023104e-05
606,0.00010242680378999967
607,0.00020527131293631502
608,0.0001453363913327438
609,7.786426555294849e-05
610,0.00017735921613636025
611,0.00015673148256320358
612,2.4906225884482107e-05
613,0.00010835202208610765
614,0.00012453723035174232
615,0.00022590548582774903
616,0.00010945324215583636
617,0.00013158623336880626
618,0.00024029124690328325
619,4.3561582616454333e-05
620,9.401216815680011e-05
621,0.0001258341475536783
622,6.943404061221907e-05
623,0.00012340703791120195
624,0.00014169398684718516
625,0.00016236609550538257
626,6.900280970028015e-05
627,0.0001253354568619574
628,0.00011579949539232348
629,7.855613901383328e-05
630,0.00022443931476519638
631,0.00010093201854343908
632,7.384303813252191e-05
633,0.00012980189711755383
634,0.00013225945334883915
635,0.00022934831908810881
636,0.00028911750574053694
637,9.185455223928272e-05
638,4.527533579152984e-05
639,0.00011225920150357692
640,6.269940126053903e-05
641,0.0001231440133118183
642,8.782716010675377e-05
643,9.736338607501512e-05
644,6.930920074874969e-05
645,5.11237426255846e-05
646,5.3457501915655156e-05
647,7.826881104989551e-05
648,7.097426125459622e-05
649,0.00018503878261536425
650,0.00010802820791823713
651,5.432454640447809e-05
652,9.046099722896306e-05
653,0.00031355561806764874
654,0.00010318296513221834
655,0.00010231633258483622
656,0.00019493647319961834
657,6.834340781416131e-05
658,7.849111405155081e-05
659,0.00012520317491904854
660,0.00013753959848974347
661,0.00011939191219301948
662,6.91194247418848e-05
663,4.059824885498891e-05
664,0.0003646112620243737
665,5.324284937512455e-05
666,0.00015191768863875355
667,0.00011759744163357955
668,5.130985055424424e-05
669,0.00016353790557545659
670,4.595114554927102e-05
671,6.571766824719537e-05
672,0.00016930867902971634
673,0.00010511414019644955
674,0.00011571232745701472
675,0.00012720447468821531
676,2.240714242554452e-05
677,0.00011646145431109623
678,0.0001064804398799096
679,0.0002679154594845475
680,0.00020620828347965228
681,8.023898348792738e-05
682,0.0001575710154598156
683,8.328942438536873e-05
684,0.00013305694321247567
685,0.00017352429841586078
686,0.0002645387130895358
687,8.441165337970714e-05
688,0.0001469409202402375
689,0.00011844733246985084
690,7.689701908268082e-05
691,0.0001425650920869392
692,0.0002440361089846812
693,6.255970725638278e-05
694,7.605348701791384e-05
695,0.0002560321781463864
696,6.962178361706168e-05
697,0.0001693958031434178
698,0.00010303404479406264
699,7.055844748190042e-05
700,0.00014993670954861483
701,0.00013894434191871456
702,0.00021695835091482444
703,0.00012355043265085115
704,0.00010774493564036895
705,0.0002325644291808933
706,0.00014092747265253674
707,9.69923762774041e-05
708,0.00020265632121262714
709,0.00019971681589433648
710,0.0001423379460325199
711,9.066292723776024e-05
712,0.00014489288811642115
713,0.00023945180665098161
714,0.00014961093102455335
715,0.0002116731137605852
716,0.00019048937035128072
717,0.00015547331417942005
718,0.0001917637819428562
719,8.174128596544668e-05
720,2.9494207044055897e-05
721,9.926052987526684e-05
722,9.680113265119107e-05
723,0.00012359567301349793
724,3.982907051062598e-05
725,0.00014287168714812885
726,0.00011540309887247484
727,9.659069686419894e-05
728,6.38172161996196e-05
729,8.945546388406585e-05
730,0.00013760484556785043
731,0.00012678395210617322
732,0.00010871222866887766
733,0.0003379305505765395
734,8.565774798160452e-05
735,0.00018551301741360452
736,5.40227650766267e-05
737,0.00011309414577752281
738,3.687313495727204e-05
739,7.299026071543476e-05
740,0.0001618096659252667
741,1.1589592053641707e-05
742,0.00016560261278134703
743,8.969038436362322e-05
744,0.00013942276937532684
745,0.00015055029061478796
746,8.789830030616812e-05
747,9.380769696600708e-05
748,0.0001881730973035903
749,0.00012794460387881849
750,0.00022588383601101122
751,0.00020065577784497045
752,0.0002663796155467125
753,0.00019137038279402776
754,0.00013427040144970193
755,7.91903932984454e-05
756,9.349219453994389e-05
757,2.878150245592475e-05
758,7.487886738545843e-05
759,0.0001487458098748317
760,0.00011183232038451546
761,0.0003543177026025685
762,0.00022737158252740107
763,4.765947746739675e-05
764,0.00012880467391588295
765,0.0001964891852007728
766,7.202745661990628e-05
767,6.612704678358264e-05
768,0.00024118924394731726
769,0.00013381110191012754
770,6.944278513777298e-05
771,9.358334631988752e-05
772,0.0002612601550034582
773,0.00018009203188358024
774,8.135285745099607e-05
775,0.00011756126712653298
776,0.00024134538925376053
777,0.0001504556711413939
778,4.575201120921326e-05
779,0.00010277153930726654
780,9.890945982380911e-05
781,0.00017576547437812614
782,0.0001846378977373414
783,0.00010331159725884599
784,0.00010828611268467817
785,0.00012965547288858114
786,0.00016491465270068224
787,0.00018599239310893544
788,0.00010827580272612574
789,0.00011843067446990692
790,8.198073461911467e-05
791,6.114690622956589e-05
792,3.873110996026354e-05
793,7.824221366139378e-05
794,0.00011675506344435795
795,7.342465750641278e-05
796,8.469507843127566e-05
797,9.052768094451766e-05
798,0.00015282549626940975
799,0.00025533440891306516
800,0.0001236290669098461
801,0.00014210573348117031
802,6.27214454015052e-05
803,2.7414647204978306e-05
804,0.00013787548481824418
805,0.0001286618033971274
806,0.00019594776993157265
807,0.0001884631044034118
808,8.386118483796227e-05
809,6.529436108733703e-05
810,4.782202676572869e-05
811,0.00017468757460748632
812,9.830738251964731e-05
813,0.0003211634108121217
814,4.614897218208927e-05
815,6.524171992236643e-05
816,8.896472327629397e-05
817,0.00012457581441059658
818,8.791847738574775e-05
819,0.00018535591267637317
820,9.117126569505809e-05
821,0.00027632489773665096
822,9.65108208607725e-05
823,0.0001458231205614325
824,2.2761709190931168e-05
825,0.00013352504783295153
826,3.2270028603829945e-05
827,0.00017471068898874674
828,0.0001520246834976819
829,0.00022176565198395192
830,0.00011513205469639518
831,6.323397771497987e-05
832,0.00011042769062204663
833,0.00018923333792464993
834,0.0001890563122093743
835,8.363993636763639e-05
836,0.00015488338441486433
837,0.00013717497460081848
838,0.00013049789938592268
839,0.0001878303178312167
840,9.58849437984217e-05
841,0.00014213921647703156
842,0.00018779027640264867
843,0.00031834514165693904
844,3.910371015048827e-05
845,0.00021430593346247065
846,0.00011008110861345776
847,0.00021141148510580782
848,0.00013042972458825763
849,4.840988599891298e-05
850,4.4490945508636706e-05
851,0.00020829023689180367
852,0.00013465016087620764
853,3.254303893179128e-05
854,0.00019639305959685518
855,0.00015545255832561316
856,0.00010594812607982086
857,0.0001491994919630506
858,0.00016378664556225284
859,0.00015613359399874844
860,6.416811448761999e-05
861,0.00028675248129694244
862,6.736278052543634e-05
863,0.00010999329308342564
864,0.0001501789945627393
865,0.00012130632814938179
866,0.0002172447883675156
867,0.00012630842439542982
868,0.00029150236336617554
869,0.0001881058127090841
870,0.00010001128222300499
871,9.573231067954607e-05
872,0.0001538885487374944
873,0.00011484391171281276
874,2.9696865175228607e-05
875,0.0004714686768274191
876,0.00010799145002758471
877,9.286861459561883e-05
878,9.633230577506775e-05
879,5.810416416538124e-05
880,0.00013552324640669374
881,7.844177126100583e-05
882,9.510044631457916e-05
883,8.662679920462232e-05
884,0.0001295942013383294
885,0.00020981399967465067
886,3.736133987812826e-05
887,7.645024357797782e-05
888,5.560770956361823e-05
889,8.991590825443551e-05
890,0.0001315618319112016
891,0.0001335052691423153
892,0.00021079408804512573
893,0.00014180027644321118
894,7.331597732298574e-05
895,4.4162278833304145e-05
896,6.914289479176061e-05
897,9.006468221422691e-05
898,7.515771297684605e-05
899,0.0001296051232726096
900,9.937212528417892e-05
901,5.8981533781574974e-05
902,0.00011873397496403089
903,6.593172611263118e-05
904,0.00017610825372522783
905,0.00012027957064869219
906,4.4653897020272915e-05
907,7.67969219808155e-05
908,0.00012846177738957878
909,0.0001338789324503363
910,0.00015443458123684092
911,0.00010865114769150144
912,0.000272449157402487
913,5.237177662046657e-05
914,8.721721431221355e-05
915,4.4735030250478606e-05
916,8.820847353679389e-05
917,0.00018741974870440463
918,0.00010701926742016257
919,0.00014879669012296464
920,0.00013753203621489973
921,0.00011080722223197056
922,5.8507199845334346e-05
923,5.5820394574355784e-05
924,0.00011062864101335848
925,0.00017270255355758112
926,6.873749914250474e-05
927,9.565755585356193e-05
928,5.013194474884522e-05
929,7.445600853254423e-05
930,4.788457631859366e-05
931,8.406661372995175e-05
932,0.0002175204521664896
933,8.86181613012392e-05
934,0.00015584743405695027
935,0.00019379700312898858
936,0.00018420082897538395
937,5.967011893100452e-05
938,0.00010856409992934744
939,0.00012803489625972273
940,6.858202817875747e-05
941,0.00013208230516489718
942,4.7276141011525345e-05
943,4.565251999747047e-05
944,0.0001657985293060057
945,0.00011398753321797286
946,0.00020459122019078824
947,0.00014214678191567563
948,0.00013629210532293875
949,0.000150705972813225
950,0.0001237700863799617
951,0.0001669669546616304
952,0.00013089836506368296
953,0.00018362122844028746
954,0.0001381167655996834
955,0.0007811591485522598
956,7.825903658503249e-05
957,8.874212760525843e-05
958,7.317103619435694e-05
959,5.0688163176953984e-05
960,0.00010712537055329919
961,0.00012649095449294198
962,0.00011839537879837107
963,0.00011727728692265539
964,0.0003661048365296211
965,0.00016420022649132882
966,6.243020145013718e-05
967,0.00015335971579559952
968,0.00011594115303406241
969,6.534831103348988e-05
970,0.00016817795481433574
971,8.15001706572104e-05
972,9.587450343790802e-05
973,6.021299277204207e-05
974,0.00015012566869411945
975,0.0002681249442650453
976,6.041205544646213e-05
977,7.31533484076604e-05
978,0.00020809374933461328
979,0.000205896216846853
980,0.00016377380524938264
981,0.00014442836917536573
982,0.00013135383095923432
983,5.2349519166466344e-05
984,0.00011703160982990669
985,0.00011059402911133708
986,0.00010195592325693623
987,0.00014841177385355837
988,9.551074764291183e-05
989,0.0003204329304614941
990,8.861254165923917e-05
991,0.00014248630216020817
992,7.950748429834318e-05
993,5.474493479235784e-05
994,0.00019220960325523932
995,0.00018400686771529465
996,6.343635372503873e-05
997,8.520881797252484e-05
998,0.00010155877021947263
999,0.00012996188133475764
1000,0.0002183312331778024
1001,0.00028071819768368627
1002,0.00011239037298931334
1003,8.386251033939594e-05
1004,0.00016480684773901398
1005,0.00015964798822388698
1006,0.0001216874379524448
1007,0.00022178908871927302
1008,0.00020275980345779463
1009,0.00010749538306169815
1010,3.6559882983048495e-05
1011,2.810276946061602e-05
1012,0.00015737950025112
1013,9.094113354287147e-05
1014,0.00011814355763343948
1015,0.00013383398530387574
1016,0.00011528516477896295
1017,9.988341821310539e-05
1018,0.00018077946205596532
1019,0.0001028707003678438
1020,0.00014971810261004852
1021,0.00013548157612685628
1022,7.405019175523132e-05
1023,0.000119774931691201
1024,4.8952119076740914e-05
1025,0.00020146122411450842
1026,0.00011935663510975233
1027,0.00015287328872174902
1028,0.00012784021539848843
1029,7.281558909661239e-05
1030,0.00013358923250998323
1031,0.00010964887790006763
1032,0.00010351497556596801
1033,0.00010823632752359375
1034,0.0001464264614904878
1035,9.329047395700163e-05
1036,8.578695781066872e-05
1037,7.583286637950128e-05
1038,0.0001120419200174756
1039,0.00017307741101709682
1040,0.00015305090454141495
1041,0.0001024999943765982
1042,7.910316174626305e-05
1043,0.00018073876041067055
1044,0.00016331453966734306
1045,0.00024569579918402585
1046,8.806631866299656e-05
1047,0.00010818315258334418
1048,0.00013567151703833044
1049,0.00019303585228410013
1050,6.984696492200412e-05
1051,6.603727921319207e-05
1052,0.00011243110600469056
1053,7.495649719074964e-05
1054,0.00022030246345058422
1055,0.0002155282942607223
1056,6.83659324204947e-05
1057,4.560313326964752e-05
1058,0.0001779771832379884
1059,0.00020129690025392282
1060,0.00011052038352253604
1061,0.00028392661707895043
1062,0.00023498706845961117
1063,6.75606364066683e-05
1064,0.00022099788292618476
1065,4.142520659443542e-05
1066,9.9575716550415e-05
1067,9.36074121620345e-05
1068,0.00020468558873986117
1069,6.107479845697735e-05
1070,9.308148791188478e-05
1071,0.00016324111523271912
1072,8.576477847479293e-05
1073,8.631042669689824e-05
1074,0.00010156468365106448
1075,0.00018750880379176982
1076,6.695295341929512e-05
1077,0.00013998209506366013
1078,0.00015939185283817675
1079,0.00010975824307709697
1080,0.0001764941097246343
1081,0.00011010164956269501
1082,9.594536649621974e-05
1083,0.00010169291603435956
1084,8.370731959381371e-05
1085,0.00010800096253690012
1086,2.2246876435966123e-05
1087,0.00012632259367163394
1088,0.00015107326233495692
1089,0.00016335107355968623
1090,0.00027874561486975245
1091,0.00010525580810626448
1092,7.97779254249088e-05
1093,6.6399366862225e-05
1094,0.00018308386993869002
1095,4.731413970249186e-05
1096,0.0001239709774558901
1097,4.7896948896329916e-05
1098,1.9526018756209526e-05
1099,7.510928697917709e-05
1100,0.0001178930776993164
1101,0.0002179079154620523
1102,0.000257851251605521
1103,0.00010365360826912802
1104,5.2897492118533565e-05
1105,0.0001189470323289834
1106,7.958606472165378e-05
1107,0.00010026484660857398
1108,0.00015463388997289998
1109,0.00015081555190184608
1110,2.4589076819873624e-05
1111,9.652361455180514e-05
1112,0.00014402509366626573
1113,8.986970541045015e-05
1114,7.312222928341545e-05
1115,0.0001678560927137249
1116,9.69440597196875e-05
1117,0.00011327678145300295
1118,5.514570169336778e-05
1119,0.0001032342867731733
1120,0.00017393003672453027
1121,0.000393443413885989
1122,0.00024677733569138864
1123,5.560227861547378e-05
1124,6.805271449634792e-05
1125,5.303055120286849e-05
1126,0.00014420769721135732
1127,0.00015077829104994541
1128,2.0819016574148075e-05
1129,0.00015087661697075528
1130,0.00012128996628524771
1131,0.00011794140848904775
1132,4.328182484500385e-05
1133,0.00010957766618442688
1134,0.00020084383432548874
1135,4.828807216477632e-05
1136,0.00010491545905252082
1137,0.00020164145733674293
1138,0.00014468446777419106
1139,6.20596939834578e-05
1140,0.0002674092882863787
1141,5.7278974646912103e-05
1142,0.00013611890345136468
1143,7.811521569373221e-05
1144,9.293459001551641e-05
1145,7.552716552351225e-05
1146,0.00014966234147410258
1147,6.003157687692598e-05
1148,5.623585571051337e-05
1149,7.45690965382386e-05
1150,5.682966698098669e-05
1151,6.055341541732672e-05
1152,0.00011870318574577292
1153,0.00031699530735115184
1154,0.00010515865802292507
1155,0.00021950691039134302
1156,0.00018430957804499128
1157,4.703811256017523e-05
1158,0.0001127788871789475
1159,9.131345215568985e-05
1160,0.00010578014934091852
1161,0.00017327799321287105
1162,0.00010911725748211037
1163,0.0001807915082552414
1164,0.00018271737250815474
1165,0.0001482537523079652
1166,0.00021418571592556423
1167,9.992647896466587e-05
1168,0.00016258642947344364
1169,0.00012082967904349712
1170,5.994349956673713e-05
1171,9.284979727527684e-05
1172,0.00010939764421383279
1173,9.187555174440842e-05
1174,0.00010484907007444397
1175,0.00011305469768256284
1176,0.0001657814552956344
1177,0.00012786434586948853
1178,9.982814909511194e-05
1179,4.079451364766809e-05
1180,5.1451712790081034e-05
1181,9.970646511882853e-05
1182,0.00011176183843206415
1183,0.00021504018204344981
1184,7.700302263247048e-05
1185,0.00019618045848520966
1186,0.00014282449522108053
1187,6.120181343693852e-05
1188,7.81183933767878e-05
1189,0.00014368383577954098
1190,7.042617897831349e-05
1191,7.3753671827375e-05
1192,0.0001097511821190044
1193,7.732166160097808e-05
1194,8.933812015065447e-05
1195,0.00014607676000937545
1196,0.00015321411362605937
1197,0.00010948895469400018
1198,0.0001791224193713592
1199,5.078974877315824e-05
1200,9.027889441438337e-05
1201,0.00016704374510450128
1202,8.356168709558478e-05
1203,0.00011088112811639699
1204,3.2329844060491e-05
1205,6.0055430665252206e-05
1206,9.296477225318158e-05
1207,7.454152984151829e-05
1208,8.941534130586551e-05
1209,0.00014445695498780504
1210,0.00012030967761237211
1211,8.379559182812612e-05
1212,0.00018846688785142344
1213,5.9357201081341134e-05
1214,9.182569363344198e-05
1215,3.4647879689132006e-05
1216,2.6802113714700015e-05
1217,0.00017910739051181884
1218,8.738186512584165e-05
1219,4.583417696534079e-05
1220,0.00014046117948568842
1221,0.00014476926561355727
1222,8.339847128777538e-05
1223,8.074648151757133e-05
1224,0.00015587297731913275
1225,9.366027960733293e-05
1226,0.00020190980876472054
1227,0.0001395171967090367
1228,8.234450341877072e-05
1229,9.93671797942426e-05
1230,6.798503999028957e-05
1231,0.0001135905277799216
1232,0.0001923813228761664
1233,0.00015160863924908977
1234,0.00013935838679153393
1235,0.0001032081544857819
1236,0.00013691111340016088
1237,4.680250250798772e-05
1238,6.521074833165247e-05
1239,0.00012660058227087864
1240,3.587846416950459e-05
1241,9.725191563564957e-05
1242,0.00010685479128452781
1243,9.205037441791476e-05
1244,0.00021237622695073437
1245,0.00015388175503928673
1246,0.00014001702050029605
1247,6.251353871605597e-05
1248,3.805058457244501e-05
1249,6.738798488883437e-05
1250,5.409595412173145e-05
1251,4.032727962017519e-05
1252,6.322123192941705e-05
1253,9.16704346282269e-05
1254,0.00010106546194187997
1255,0.0001791429628288885
1256,0.00012004544938684025
1257,0.00011698588191378105
1258,0.0001122506008039689
1259,6.375386678659535e-05
1260,0.00019062473614383341
1261,0.00010860231491453186
1262,0.00016760553430345291
1263,0.00016958079447455641
1264,0.0001383499319275384
1265,0.00014544753954541764
1266,0.00015627675736552794
1267,0.0001244066090470509
1268,0.00024964091646263324
1269,9.092326889496522e-05
1270,0.00012018581322181534
1271,8.052970567404868e-05
1272,0.00016439123410070687
1273,0.00014393046777989545
1274,0.0001386031138831445
1275,0.0001878320428604107
1276,0.00017969591576647028
1277,7.894356078948079e-05
1278,0.00010683961686532732
1279,5.584302273570216e-05
1280,8.237227650468596e-05
1281,0.00039412833323160756
1282,0.0001282923660803333
1283,7.003076556336126e-05
1284,0.00014902400293791582
1285,0.00010688695308600142
1286,6.882719459873246e-05
1287,0.00013185889294603745
1288,0.00016193134229438482
1289,5.596785879480952e-05
1290,0.00013855594293518886
1291,7.879246118201017e-05
1292,0.00012915155267800645
1293,0.0001492459979034722
1294,8.605148657135324e-05
1295,0.00014889894102033773
1296,0.00022193854544057278
1297,0.00014468462835996013
1298,8.266760832281553e-05
1299,0.00024925625546895177
1300,8.143049016938158e-05
1301,0.00020712104918265702
1302,0.000100152449131602
1303,5.93025324343272e-05
1304,7.335589355833374e-05
1305,7.712646968998564e-05
1306,0.00017987185606753122
1307,7.201286411550445e-05
1308,0.00017087494636410368
1309,0.00010044584599956744
1310,5.803834268448295e-05
1311,5.597737205251938e-05
1312,8.239076477482234e-05
1313,0.00030350276326300297
1314,0.00019117310283240356
1315,0.00028900509980514375
1316,0.0002867212372136092
1317,0.0002043394013456813
1318,7.754035674037663e-05
1319,8.8618896803093e-05
1320,0.000193134101335371
1321,9.729086544330365e-05
1322,3.589269265995218e-05
1323,3.506850093476593e-05
1324,0.00012472171240113654
1325,0.0001282165109812692
1326,0.00021617155194090734
1327,0.0003669101226130169
1328,9.480023024871926e-05
1329,0.00011400046537956716
1330,0.00015892306250982403
1331,0.00013769446532270257
1332,0.00016100560824039594
1333,0.00011493849812873686
1334,5.932148661423117e-05
1335,0.00017755094631565448
1336,0.00011954353445258469
1337,0.0001297361085417165
1338,0.00011519832786207244
1339,0.00016292855203429928
1340,0.0001009575658890037
1341,0.00012663727854074966
1342,0.00012262463097974176
1343,0.0001450764691057853
1344,0.0001328685694588091
1345,0.00025060426884612264
1346,8.775814803970615e-05
1347,0.00016884814398946096
1348,0.0003790775220993825
1349,7.412961341457068e-05
1350,0.0002600515915030671
1351,3.688741802340949e-05
1352,5.8904201755049655e-05
1353,0.00018401275014863746
1354,0.00014142087993709024
1355,0.00010337243102732935
1356,4.6654655584752417e-05
1357,0.00010424871396465225
1358,0.00021201097265096183
1359,0.00014263018916242214
1360,0.00013023928374810654
1361,0.00016129740567981708
1362,0.00015761801664251874
1363,0.0001624011574448833
1364,0.00010792821605098753
1365,0.00013800288122248832
1366,0.00011183073005978866
1367,0.00022717377409452673
1368,9.075543084716049e-05
1369,0.0002220585383587838
1370,0.00013339820273393797
1371,0.00017434697022414427
1372,8.937855986849012e-05
1373,0.00012406392283939978
1374,0.00015123442764884923
1375,0.00025571994683135096
1376,0.00016076003898232233
1377,4.43935784818337e-05
1378,4.6605084305206444e-05
1379,5.68763169626176e-05
1380,0.0001348885077813271
1381,9.775418779017691e-05
1382,8.419876992619402e-05
1383,5.035362056519789e-05
1384,3.632820208734968e-05
1385,0.00020222042962449912
1386,0.00026038909089552
1387,0.00023858272469924963
1388,0.0001269904800389343
1389,6.903000318438117e-05
1390,9.798618644270113e-05
1391,0.00014974941862752844
1392,0.00020573588684480633
1393,0.0002536892855817166
1394,0.00017377831660973043
1395,0.00015253048119696645
1396,0.00014273104315369101
1397,0.00010501666359443922
1398,0.0003042511637800712
1399,6.041390774125367e-05
1400,0.00025232094108400716
1401,9.257140376220849e-05
1402,7.936124213354912e-05
1403,9.291046275619802e-05
1404,9.742104703649792e-05
1405,6.604098702993817e-05
1406,0.00016997808897562157
1407,8.571746257091283e-05
1408,9.616075146409604e-05
1409,0.00013532999716906518
1410,0.00010199354023323725
1411,5.5491745529035656e-05
1412,7.023888858022096e-05
1413,7.166276578478636e-05
1414,6.584086369055788e-05
1415,0.00021194450107507075
1416,0.00014312564789569336
1417,0.00020265588771277616
1418,0.00010190543411810513
1419,0.00013146227588835052
1420,4.456809720352088e-05
1421,0.0001344151156322442
1422,0.00011326505930128042
1423,0.00016599785250259386
1424,0.00018568626461869055
1425,0.00015294113834790933
1426,9.670295589545801e-05
1427,0.00013049889893322806
1428,0.0001077118831783408
1429,0.00018412557368827572
1430,0.00019579561775404602
1431,0.00015558254357426202
1432,0.00010787734201327886
1433,0.00013835867802497486
1434,8.64717576367089e-05
1435,0.0002575140754387379
1436,0.00015930579796945534
1437,4.906230992426156e-05
1438,7.378804296746393e-05
1439,0.0001042197565240888
1440,0.0003457625937394068
1441,6.29087391749876e-05
1442,5.5365178420013684e-05
1443,9.92916081057958e-05
1444,0.00011413035674927313
1445,7.546651536396351e-05
1446,0.00014411514314093302
1447,0.00021485904286143708
1448,0.00012235721103309312
1449,0.00014528283681769573
1450,9.839349732553085e-05
1451,0.00016962993237980926
1452,8.546527176721822e-05
1453,0.0001098799775754746
1454,4.338183718785118e-05
1455,0.00019606121430244485
1456,6.476722400448118e-05
1457,8.082579032080665e-05
1458,0.00024590921052255067
1459,7.357596359672269e-05
1460,0.00016465776498122888
1461,7.244100319800209e-05
1462,5.0597051769972014e-05
1463,4.9200861659681624e-05
1464,0.00019122285830165214
1465,9.980584517207657e-05
1466,6.960725960234828e-05
1467,0.00020716214982226863
1468,9.614159975368611e-05
1469,0.00013932201723411167
1470,4.720501339750151e-05
1471,5.1827819949969254e-05
1472,0.00010591083598265958
1473,0.00014830935428761883
1474,0.00011556998250339986
1475,0.00016795396506419453
1476,8.956744328738344e-05
1477,0.00016313732390442034
1478,0.00011747400743032074
1479,0.00012000761136593622
1480,0.00015647292778087372
1481,9.394444753227351e-05
1482,0.0001423952296469586
1483,0.00017706050819588044
1484,0.00013585469675124115
1485,0.00011357372222036117
1486,0.0001340192238309781
1487,6.322729502536125e-05
1488,8.255660553368248e-05
1489,0.00013657493712892962
1490,9.880757122375885e-05
1491,8.898860757093075e-05
1492,0.00025118838989278636
1493,0.0001321755463130464
1494,0.00020335378087261465
1495,7.805112567775243e-05
1496,8.324011845992096e-05
1497,0.00010211120087761055
1498,0.00011549690217505396
1499,7.303868703917269e-05
1500,6.120197312185217e-05
1501,0.00011571038378807314
1502,3.262925546867973e-05
1503,0.0002153600485193602
1504,0.00016934633617347468
1505,9.646764868869064e-05
1506,0.00019586854836436913
1507,0.00013352607431983628
1508,0.00020798461169447364
1509,0.00013573233912037735
1510,6.447504474785311e-05
1511,0.00015776778802086396
1512,4.3910986900230806e-05
1513,8.969593709829787e-05
1514,0.00019457610130408964
1515,0.00014493654275352333
1516,0.00015918758039199936
1517,0.0002378690077208767
1518,5.7326190515317294e-05
1519,4.8418440896233323e-05
1520,0.00011310209867499216
1521,0.00018653880001799
1522,0.00011839664612548765
1523,0.00012507241612664567
1524,6.26793124726877e-05
1525,9.469296660693036e-05
1526,7.001518598387691e-05
1527,0.00021172564423703813
1528,9.052359540798575e-05
1529,4.386184907925773e-05
1530,0.0001510430543653435
1531,0.00017788372508827321
1532,0.00015213719232786723
1533,6.351504709461578e-05
1534,5.090021810061031e-05
1535,5.854013141158907e-05
1536,9.868736343201135e-05
1537,4.637656565530042e-05
1538,6.249507028529583e-05
1539,0.0001687009481497179
1540,9.84552656105752e-05
1541,0.00012932097981454928
1542,8.801774640172937e-05
1543,8.956286018327648e-05
1544,0.00012280156802097202
1545,8.435032173479475e-05
1546,5.246973279603259e-05
1547,8.76566254787784e-05
1548,8.385345836080702e-05
1549,0.00017518828036616285
1550,6.858901831509944e-05
1551,5.130790731403959e-05
1552,7.112336486921503e-05
1553,0.00047142500460531573
1554,0.00022252118823478707
1555,5.353462854895512e-05
1556,6.967913336144222e-05
1557,0.00010504791572729858
1558,0.00019397792543253967
1559,0.00011476141431789108
1560,5.456832967548256e-05
1561,0.0001154626421467503
1562,0.0001363050255527791
1563,0.00017883548775900738
1564,5.975040618829552e-05
1565,0.00023945060000170332
1566,9.186828164998049e-05
1567,0.00020106249201959296
1568,7.550741314237966e-05
1569,6.771868480756689e-05
1570,5.3537546154218624e-05
1571,9.724844515596436e-05
1572,9.833166366836061e-05
1573,4.6499613170197806e-05
1574,5.1785576697780716e-05
1575,0.00013139856258484125
1576,0.00010065815275107336
1577,0.00018570866685160581
1578,0.0003449325303036916
1579,0.00021024920097865546
1580,0.00011695077732354022
1581,0.0001305787419759526
1582,2.8649588864995248e-05
1583,3.333989095797263e-05
1584,0.00017645188681570317
1585,0.000116605515270777
1586,5.4575170216776165e-05
1587,0.00015277733816936997
1588,0.00011094710475200296
1589,9.449333769924773e-05
1590,0.00010705439651117735
1591,1.565064218906828e-05
1592,0.00010659459729108653
1593,0.00019758482047887223
1594,0.00018166906371053874
1595,0.00010313689590916593
1596,9.18096261749601e-05
1597,0.0001570939242231656
1598,4.51171630799313e-05
1599,0.00010413399181572567
1600,0.00010777066637252981
1601,0.00012754996671428398
1602,0.00011544201904376764
1603,9.623018885714901e-05
1604,4.00845300237547e-05
1605,8.84086600620273e-05
1606,0.00012564507588761961
1607,6.947004752307857e-05
1608,0.00017349479895141848
1609,9.834451325100765e-05
1610,7.711143982454053e-05
1611,8.833967035706521e-05
1612,9.639129976084598e-05
1613,0.0001076348749525316
1614,0.0001014442886628893
1615,0.00018338275220232912
1616,6.287429606164882e-05
1617,9.131055703832251e-05
1618,2.2997528180435007e-05
1619,0.0002614225546009914
1620,8.350953546630532e-05
1621,5.967165436733915e-05
1622,9.9327623763191e-06
1623,0.00010901451590133184
1624,5.9969643448663486e-05
1625,7.455963066993121e-05
1626,0.0002645965744384175
1627,0.0004596153489107737
1628,0.00017860255204990718
1629,5.465901332052557e-05
1630,0.0001720711787329344
1631,8.028433162255722e-05
1632,0.00016572996384557487
1633,0.00013228759268513624
1634,9.72303199645443e-05
1635,5.313896569730356e-05
1636,0.00011099955577772842
1637,0.00011342992060433718
1638,8.156148351468344e-05
1639,0.00011630241138404684
1640,0.0001021785417650578
1641,0.00012708569135743558
1642,0.00010678247257681886
1643,0.0002506879280678113
1644,6.0360591835519e-05
1645,9.67103033896031e-05
1646,0.00012996597944499666
1647,0.00016962332277161885
1648,5.4112699619534824e-05
1649,9.45662815323179e-05
1650,4.582542106682373e-05
1651,7.6827951688639e-05
1652,0.00015355910278040108
1653,5.7561359710778105e-05
1654,7.330170719283964e-05
1655,0.00015939231023159942
1656,9.98130422354738e-05
1657,0.0003219495688925161
1658,5.993460251688456e-05
1659,0.0002481373972697812
1660,0.00010951248075701507
1661,5.696386326383138e-05
1662,7.960512362540332e-05
1663,0.00015566423282923348
1664,0.00026832756976336833
1665,0.0001213268896338216
1666,0.0001467631114181124
1667,4.940739197293704e-05
1668,8.723658025461167e-05
1669,0.00013908843009403934
1670,0.0001798259466497911
1671,0.00013060669284694644
1672,0.00027142691658477765
1673,0.00018952894983898845
1674,0.00011935098397814503
1675,6.34117881871928e-05
1676,9.992821059162921e-05
1677,9.84175020097167e-05
1678,6.221748584252633e-05
1679,4.9680054727126014e-05
1680,0.0001812540427900933
1681,0.00010018255779499355
1682,9.598396053916315e-05
1683,0.00010402917077140886
1684,3.723514500213974e-05
1685,0.00012095756998486287
1686,0.00011498613763861425
1687,9.507486365070642e-05
1688,9.089547869360014e-05
1689,7.878371394639274e-05
1690,0.00012350455935173325
1691,8.90121536118266e-05
1692,9.615083089417888e-05
1693,0.00016744505465434922
1694,0.00010991963465981761
1695,8.785235434270626e-05
1696,8.519575262962738e-05
1697,0.0001518044659617342
1698,4.721554878866468e-05
1699,9.408699921044893e-05
1700,4.208040091816367e-05
1701,0.00011774967297435977
1702,0.00011457513172890028
1703,0.00015672404388473326
1704,0.00018127229655692147
1705,0.0001880075845407985
1706,0.00015121705794017356
1707,0.00010951535609725082
1708,9.473395734105364e-05
1709,8.720106091796587e-05
1710,9.01151804358625e-05
1711,3.7992220097865455e-05
1712,9.457414989796263e-05
1713,0.00013731242834068034
1714,9.46239977783025e-05
1715,0.0003714084751334877
1716,8.066539835234831e-05
1717,7.765039341458353e-05
1718,0.0001357242314237124
1719,0.00015679212881750335
1720,0.0001917282813724581
1721,0.0001099447958949124
1722,0.00023616006071247003
1723,9.302069580151531e-05
1724,0.00013295343224180422
1725,0.00010708412124175239
1726,4.093000058182485e-05
1727,0.00023184150760102086
1728,0.00025986027585471846
1729,9.069259929750075e-05
1730,0.00015359326218402874
1731,0.00012983279176959422
1732,0.00013107388331529731
1733,4.3849899753864486e-05
1734,9.858601461861287e-05
1735,8.350999482730182e-05
1736,0.00029973283749473094
1737,0.00014731523213161538
1738,8.29675249204285e-05
1739,0.00016134016477169165
1740,7.944662083079251e-05
1741,0.00013612665781527876
1742,0.00013284860148122482
1743,0.00015431299625243567
1744,8.075159511472908e-05
1745,7.908454637835424e-05
1746,0.00011852994087765132
1747,7.741692701393827e-05
1748,0.0001723284639872309
1749,0.0001421095703588603
1750,0.00022924023428944802
1751,0.00018774221659782582
1752,0.00018236259691095105
1753,0.00021820843677637856
1754,0.00011178657198359238
1755,0.00011207528051352269
1756,0.0001829703252888362
1757,0.00026197673823697337
1758,4.822821233176379e-05
1759,8.924543892867337e-05
1760,8.49857425065978e-05
1761,0.0003214055725264381
1762,0.0002480608748866058
1763,7.765546514048429e-05
1764,4.67092409158173e-05
1765,0.00018682276714135297
1766,0.00015024965902995596
1767,0.0003135075078724035
1768,0.00012790804933302858
1769,0.00022243661458057904
1770,7.343744531931122e-05
1771,0.0001417875900791738
1772,8.682158105357602e-05
1773,0.00031835533653834665
1774,0.0001080777976383367
1775,0.00012718695494910994
1776,0.0002837077123203141
1777,0.00011992191800046952
1778,0.00015085218915404105
1779,0.00017361059711374662
1780,0.0001354752832912907
1781,4.74387139365105e-05
1782,0.00019461487896555357
1783,9.377878273788905e-05
1784,6.520747369782047e-05
1785,8.125055578545918e-05
1786,6.357636546199915e-05
1787,0.0001785802628785086
1788,4.197464904310955e-05
1789,0.00021757328574727668
1790,0.00010700401561683588
1791,0.0001459195148998917
1792,0.0001249403966814057
1793,0.0003565811134200167
1794,0.0002159067615281629
1795,0.0001568829516195355
1796,0.00018654607185907332
1797,4.8217037088211994e-05
1798,0.00012978565162792712
1799,0.00021361429440949553
1800,0.00010118831736473025
1801,0.00013738336863533326
1802,0.00011507546401987663
1803,5.7078918209314136e-05
1804,0.00011898308102335875
1805,0.00016224996880436822
1806,0.00020232335078532325
1807,0.00013734415755110245
1808,0.0001446216422187601
1809,0.00016503405118304548
1810,6.13937685652649e-05
1811,3.153235309158193e-05
1812,6.709337530385617e-05
1813,7.784683583640267e-05
1814,0.0001384896220264134
1815,8.066303838600044e-05
1816,8.177196977219805e-05
1817,0.00013550081757883378
1818,3.4496251629087504e-05
1819,5.959268347179146e-05
1820,0.00011442191437087864
1821,3.4711228354365704e-05
1822,0.000294744027888416
1823,0.00010634742728951003
1824,0.00010291933565193066
1825,6.841306425436386e-05
1826,0.00012633526458924186
1827,7.11833093832611e-05
1828,8.850444598267609e-05
1829,7.059391142836656e-05
1830,0.00015789837172560707
1831,0.0001211154531102402
1832,0.00010475422052467042
1833,6.964446535027413e-05
1834,0.00021900988513541886
1835,0.00011528799049607795
1836,0.00015635052845154823
1837,9.97437512477102e-05
1838,0.0001440402764054043
1839,0.0001479827300569438
1840,0.0002516989401389115
1841,0.00022706773450917206
1842,9.739077282267027e-05
1843,0.000124218989364749
1844,5.4607324070169145e-05
1845,0.00014954214010028653
1846,4.028833589819534e-05
1847,0.00011693678979257666
1848,0.00013724464017492684
1849,0.00015466443446447822
1850,0.00015305045170346592
1851,0.0001344971308558867
1852,0.00015277407742735546
1853,6.691161878073087e-05
1854,0.0001348968015835221
1855,8.924862653725022e-05
1856,7.034997452721718e-05
1857,9.52176837677316e-05
1858,0.00013556986211286012
1859,0.00011242424679868268
1860,0.00012294751000024507
1861,0.00023890819324845876
1862,9.20554359902282e-05
1863,0.00011139577503222903
1864,8.748624159234081e-05
1865,0.00021817977938201792
1866,0.00017061363627647282
1867,0.00010054734151692274
1868,0.00022198264036045443
1869,0.0002023406649246033
1870,0.00014158947030323992
1871,0.0001312936578047461
1872,0.00016972558084731205
1873,7.2672522303947e-05
1874,8.723179292205818e-05
1875,0.00024568446978071463
1876,0.00016172653892041017
1877,8.991788227061429e-05
1878,0.00012356464772442853
1879,0.00011742077102513755
1880,0.00024016854380789547
1881,6.272537009852684e-05
1882,7.850359903566544e-05
1883,7.745627960231679e-05
1884,0.00018464712986491285
1885,5.1236498738590976e-05
1886,7.573419433590231e-05
1887,4.4828100577535346e-05
1888,0.00010787237608966455
1889,0.00012954728067954822
1890,0.0002577754648162168
1891,8.115199941216816e-05
1892,0.00010786739331554246
1893,0.00014162112980534844
1894,0.00019117785493969071
1895,7.362350859618837e-05
1896,6.319683754789604e-05
1897,0.00013515213803467734
1898,0.00014564843544552495
1899,0.00015395957428038421
1900,6.929248670815884e-05
1901,0.00017381532819493996
1902,0.00015975427011798697
1903,0.00020340593253873399
1904,0.000165254076214888
1905,3.716142133595762e-05
1906,6.197002101157412e-05
1907,0.00018591008514392562
1908,0.00018734138761177
1909,8.303378791945038e-05
1910,0.00013034835897905521
1911,6.842437943430103e-05
1912,0.0003368234027402699
1913,0.00010205414140077352
1914,0.00014391447445919402
1915,5.0400346534230787e-05
1916,6.542430301818436e-05
1917,0.00022553750065246896
1918,0.0001920672533770525
1919,0.00015458396011802284
1920,8.929050072845462e-05
1921,0.00027313475206685667
1922,0.00010601248365028767
1923,0.00028767280883955164
1924,0.00022987933089867416
1925,6.445103756005604e-05
1926,0.00011634539471946161
1927,0.00017913618568206446
1928,0.0001059577321446687
1929,8.884471217266527e-05
1930,4.7645774879230675e-05
1931,0.0002461688315139894
1932,0.00017179118095373458
1933,8.004626668449968e-05
1934,6.981450962458912e-05
1935,0.00016194494152096885
1936,0.00014711624426365656
1937,0.00022576265408728836
1938,6.488711220724701e-05
1939,7.871655768708192e-05
1940,0.0001467422764769048
1941,0.0001158120688366284
1942,0.00014244486871678815
1943,5.761802170758063e-05
1944,8.912580732919605e-05
1945,0.0001599139466202863
1946,9.558069791675709e-05
1947,7.815767550859375e-05
1948,0.0002109388807202557
1949,6.401487549106909e-05
1950,0.00013035753078183488
1951,5.832433931198487e-05
1952,8.226941297326646e-05
1953,0.00012325198327516165
1954,4.175411132490961e-05
1955,0.00010795618328513497
1956,4.435879881096464e-05
1957,0.0001502492574858073
1958,9.951287068134585e-05
1959,0.0001258344412451474
1960,0.00010467660958843246
1961,8.693504386722502e-05
1962,0.00015346008547991385
1963,0.0001491703934801963
1964,7.456024630298807e-05
1965,4.09755031206378e-05
1966,0.0003921157319289098
1967,0.00012090542965790422
1968,0.00030523155882147785
1969,8.673689864547745e-05
1970,0.00010348718163779288
1971,0.00014961088253098872
1972,6.508614685419332e-05
1973,0.00012864415825183213
1974,7.17813836172563e-05
1975,0.0003505443400234645
1976,8.699375770817008e-05
1977,0.0002809636639150854
1978,5.235650685118006e-05
1979,0.0001440084062491345
1980,0.00012507117127771264
1981,0.0001408466273291881
1982,0.00017586708161112166
1983,0.00018068852355986758
1984,0.00012563750318339133
1985,0.00016781193091179998
1986,0.00014173037567772034
1987,9.736153389245225e-05
1988,4.6554685120678514e-05
1989,3.513391215230053e-05
1990,6.876280013889177e-05
1991,5.3199331017378354e-05
1992,2.8186478370070414e-05
1993,0.00010822157331468288
1994,5.52998912679992e-05
1995,0.00011171220352672387
1996,4.55051379747239e-05
1997,0.00016678421902115834
1998,0.0002651610063318337
1999,6.77319002314122e-05
2000,3.6713570869260086e-05
2001,0.00011383802718452024
2002,0.00011826421379699308
2003,0.0001442535095319732
2004,0.00018306742780545
2005,0.0001498586953358541
2006,0.00011091291384410527
2007,0.00010298377850384929
2008,5.1447046111337334e-05
2009,0.00015352481915158488
2010,5.2179039895190914e-05
2011,0.00014067812283101422
2012,0.00011367644521910125
2013,6.709281739216665e-05
2014,8.920089602915684e-05
2015,6.438848308162567e-05
2016,0.0001065746510610486
2017,0.00011684385869518881
2018,7.800685787227537e-05
2019,0.00016572306896383133
2020,0.0001724041266549983
2021,0.00016184833511038863
2022,0.00010264313020308192
2023,2.6773486736823158e-05
2024,7.104003415800138e-05
2025,0.00020041944131739462
2026,4.988367322743987e-05
2027,0.00012857382684857576
2028,2.1341658254283886e-05
2029,0.00015379887349700635
2030,6.084618343071652e-05
2031,6.618307305488614e-05
2032,0.00016111566874470277
2033,0.00010988783453638021
2034,0.00019683704420020345
2035,0.00016659284550327253
2036,0.00014697337624984444
2037,9.904804389750352e-05
2038,3.519274300160057e-05
2039,5.430513379995269e-05
2040,0.0001297899727389596
2041,0.00014883921286355998
2042,0.00018601156256891114
2043,0.00010882545738898037
2044,0.00012092743509727452
2045,9.672302312304797e-05
2046,0.00012674220653846285
2047,0.00019059776140849642
2048,8.861104607756743e-05
2049,5.248406004495944e-05
2050,0.0002237857388127277
2051,6.672934083115235e-05
2052,5.482153512801449e-05
2053,2.021488732371818e-05
2054,6.197298553775837e-05
2055,6.00329410726538e-05
2056,0.0001195415074702474
2057,9.841184444382464e-05
2058,0.00017531857704310714
2059,0.00011205036409257098
2060,0.00010572112120453713
2061,0.00015827712762187765
2062,7.643226169864232e-05
2063,5.824705904700655e-05
2064,0.0002934193324380291
2065,0.00018639847174204815
2066,6.461146885266634e-05
2067,0.00013945993568098336
2068,0.0002218646019027342
2069,0.00014610931183738914
2070,2.2782667386839464e-05
2071,0.00024396034222092108
2072,0.00010795467386852611
2073,0.000137263147641962
2074,0.00013488028208505392
2075,0.00020150884345355216
2076,0.0001282160154742643
2077,9.860982950713559e-05
2078,0.00014470757887605814
2079,0.0001601042787823765
2080,0.0001589187756674277
2081,0.00019901257434835057
2082,0.00017772909643078751
2083,0.00017133687347370698
2084,5.3882406707618514e-05
2085,0.0001270410523865277
2086,5.635540097037754e-05
2087,0.00010023077455018145
2088,0.00016170338879769268
2089,9.247280291859323e-05
2090,2.7947125550666833e-05
2091,0.00021729560972680694
2092,0.00010849793483544925
2093,0.00017197861760525414
2094,0.00017835214537103113
2095,0.00015457604766830435
2096,0.00017255491336058159
2097,7.138313764473306e-05
2098,0.000115223992602475
2099,5.9519324416669225e-05
2100,0.00010421318909645109
2101,7.914446853528842e-05
2102,9.636128227763815e-05
2103,8.083316170679765e-05
2104,3.364683104011314e-05
2105,6.921759822613706e-05
2106,0.00013050228884545553
2107,0.00017550549711861839
2108,0.00013973098056970483
2109,0.00018577525416060988
2110,0.000200629356756744
2111,0.00017472219765551618
2112,0.00013335413973777823
2113,7.621635351721248e-05
2114,0.00018674861506606436
2115,0.00018316782797340244
2116,9.793563902457431e-05
2117,0.0001571045329174954
2118,0.0001708245009601822
2119,8.920347869728477e-05
2120,0.00010761066037486218
2121,5.575534909387983e-05
2122,0.0002685717342326663
2123,9.06517227938622e-05
2124,0.00018305287430317116
2125,8.164958913068865e-05
2126,5.7600795321164955e-05
2127,7.695235195964955e-05
2128,0.00011522626173941207
2129,8.508552723621237e-05
2130,7.950612422746225e-05
2131,9.507830401581945e-05
2132,0.00018960834003995552
2133,0.00013635695637585172
2134,8.200786015016555e-05
2135,0.00015233517063668723
2136,0.000187332527408208
2137,0.0001631952553419592
2138,4.111928444631423e-05
2139,6.013114929321086e-05
2140,0.00014518626807215218
2141,0.00010011109600220578
2142,7.58997036854936e-05
2143,0.0002593495802032498
2144,9.7508937803448e-05
2145,0.00024648902901395586
2146,7.72635583260649e-05
2147,0.00010164421266459313
2148,6.801635597571362e-05
2149,6.0403101844566666e-05
2150,7.245127241720123e-05
2151,0.0001936922033934081
2152,0.00015987067480619508
2153,5.6957537741229594e-05
2154,7.778295948343802e-05
2155,5.435234152090983e-05
2156,7.878354582219501e-05
2157,0.0003023376814336922
2158,0.00022142050142061784
2159,7.40014310536598e-05
2160,0.00014033117194923506
2161,0.0001910685965109026
2162,0.0003055625778150599
2163,0.00021201359021228412
2164,0.000159444587654095
2165,0.00010535311479437404
2166,0.00013354574375510354
2167,0.00023363671864550854
2168,5.382205556164266e-05
2169,0.00014297605990606696
2170,8.617389428900864e-05
2171,0.00011507803135517441
2172,0.00014226615757410133
2173,6.950542987570858e-05
2174,8.621329884684337e-05
2175,0.00021963547974961062
2176,6.0471097291275037e-05
2177,8.805560142457712e-05
2178,0.00014886522489215308
2179,0.00016058910008160752
2180,0.00010780988654237206
2181,0.00016214043281584508
2182,7.946068741775517e-05
2183,9.312328268105086e-05
2184,0.00023887800738436727
2185,6.950413500706552e-05
2186,0.00021035933091997295
2187,6.601236765861818e-05
2188,0.00013606168436945218
2189,0.00010548454296388504
2190,0.00019998147689973534
2191,0.00012130270731196757
2192,0.00023631553611564162
2193,0.00010705948258632066
2194,0.00021070111044501556
2195,5.183249913864797e-05
2196,0.0001412009310129975
2197,0.00021160006935729778
2198,5.4426099115432276e-05
2199,7.697247160851666e-05
2200,4.974981163753589e-05
2201,0.00022645768934146502
2202,8.86643570983799e-05
2203,0.00010807847220891027
2204,0.0001937978202379271
2205,5.240703467946189e-05
2206,5.8946691139926934e-05
2207,9.923836879843905e-05
2208,0.00013733632422582184
2209,8.992917741708256e-05
2210,0.00010604092009093338
2211,0.0001374720566931808
2212,3.4325308120476556e-05
2213,0.00014889672450366695
2214,6.201799892004435e-05
2215,0.00011100797886141069
2216,5.062924897678274e-05
2217,0.0001338105327601837
2218,0.0002206640957659829
2219,4.691515438188585e-05
2220,0.00019646238539175625
2221,0.00016093487735686102
2222,0.0003781435397513081
2223,7.207006815340748e-05
2224,9.336264583909331e-05
2225,0.00010339029478544575
2226,7.94523545380542e-05
2227,6.206177007663493e-05
2228,0.00018732086108801978
2229,0.00011683948866555572
2230,0.0001877046399469296
2231,0.00013149777342256875
2232,4.077859917520565e-05
2233,0.00010635681514629963
2234,6.737051698236897e-05
2235,2.9674771961484747e-05
2236,8.68253376196143e-05
2237,7.401841132166107e-05
2238,0.00020911887457728
2239,0.0001153081986112457
2240,0.0002992164804416664
2241,0.00011344817449389423
2242,0.00017920807776023722
2243,0.00010331763848689291
2244,7.928478053587082e-05
2245,0.00010853949641854918
2246,6.610241106128481e-05
2247,6.657717962468687e-05
2248,9.147289238227998e-05
2249,0.00017362504970210968
2250,9.164799720573673e-05
2251,0.00011464401796930666
2252,0.00011021380451872793
2253,0.00013570997111500484
2254,8.582064377482672e-05
2255,0.00010744433121318906
2256,0.0001819369764322819
2257,7.512018991379809e-05
2258,0.00026687659106803326
2259,0.00012343886704543617
2260,0.00010403045723895875
2261,0.00016734968788000994
2262,0.00012441832711290022
2263,9.752829649225278e-05
2264,0.0001958433083577315
2265,0.00010574290756997691
2266,4.876262962312161e-05
2267,9.498620050506612e-05
2268,0.00020786783645081224
2269,4.834285717884317e-05
2270,4.2401155441411156e-05
2271,9.741566320029029e-05
2272,7.596680600686337e-05
2273,0.00012019712168115293
2274,0.00022368531030692325
2275,0.00010070412450353154
2276,6.399286044873932e-05
2277,0.00024099259764883563
2278,1.8525571487372985e-05
2279,0.00011858871515294989
2280,0.00022785207799810958
2281,0.00018793536113706716
2282,0.00012603110168102734
2283,7.181482447867834e-05
2284,0.0002044996125400786
2285,8.462157757620449e-05
2286,3.8324659333827384e-05
2287,0.00014382523294425694
2288,0.00021957046116709202
2289,0.00011707441830218472
2290,0.00013824832285552237
2291,0.0002039367796099421
2292,8.938708040373844e-05
2293,8.160090108427629e-05
2294,0.0002700473510579113
2295,0.00013466732490225044
2296,9.88925258165623e-05
2297,9.341505400902375e-05
2298,0.00012446912955382057
2299,0.00015941395118368803
2300,7.10472556602271e-05
2301,0.0001379163198925484
2302,8.854695419838177e-05
2303,7.678550731814534e-05
2304,9.687100221197507e-05
2305,0.00015785409739612268
2306,9.141936185619369e-05
2307,6.3272595865907e-05
2308,0.00018466617748061294
2309,0.00010741425000387796
2310,0.00021988890481716597
2311,9.556568285842926e-05
2312,4.9265571003604015e-05
2313,0.00014227628808194102
2314,6.070584328609621e-05
2315,7.898193213686106e-05
2316,6.18591471528786e-05
2317,0.00012981711962972858
2318,7.832432002278085e-05
2319,0.00014377228181100505
2320,0.00021365093264055885
2321,0.00010435575687372095
2322,0.00012883466018011956
2323,6.370641750047849e-05
2324,0.00011662062165777328
2325,0.0002635062357670932
2326,7.782208076144635e-05
2327,7.566413448741307e-05
2328,0.0001457158740344997
2329,5.605089709042795e-05
2330,6.741426815878835e-05
2331,7.03950759708341e-05
2332,0.00014274920921627176
2333,9.902173319694725e-05
2334,6.177067467222718e-05
2335,0.0001561938743088426
2336,0.00015145834980228136
2337,0.00016369148144480927
2338,6.810111419518478e-05
2339,0.00012418252430462215
2340,0.00013020152695390527
2341,0.0001395510515550239
2342,0.00014424748817897944
2343,8.304044898926582e-05
2344,0.00012185304678550242
2345,0.00011448764611274325
2346,6.664785207115344e-05
2347,0.00012960942166253606
2348,0.0001435088642283571
2349,7.07357161366602e-05
2350,0.00016858435950371716
2351,2.5529910971442407e-05
2352,7.526350806505395e-05
2353,0.00013207711754592767
2354,0.00011488705439561007
2355,0.00017284357161031884
2356,4.13733912773401e-05
2357,7.270950809477021e-05
2358,0.00011684897453400898
2359,0.00022127556331102838
2360,0.00023597838547196562
2361,0.00026578584346432604
2362,9.997797031810529e-05
2363,2.7157427943734456e-05
2364,0.00019494479895102026
2365,6.975023003009251e-05
2366,0.00018712021020983482
2367,7.235667903688288e-05
2368,0.00010027371214318585
2369,3.546929094144629e-05
2370,0.00015865838871003795
2371,0.00019604494910416221
2372,0.0001340629009483448
2373,0.00011213919103652563
2374,6.529774837842064e-05
2375,0.00012887483888455689
2376,3.855343666389128e-05
2377,9.847512500068845e-05
2378,0.00020774763096958966
2379,0.000244418895635023
2380,5.360008816020524e-05
2381,7.41016998275981e-05
2382,0.0002789526108135498
2383,0.00010003142999410699
2384,8.673940482651434e-05
2385,0.0002137910363895092
2386,6.936518096487785e-05
2387,0.00021751997930807455
2388,9.906164190746558e-05
2389,0.00022708754189550184
2390,0.0001502406215863012
2391,7.295685138173558e-05
2392,0.00016974909247613286
2393,3.399080534776656e-05
2394,5.9105143449834026e-05
2395,0.00014960630985442076
2396,9.16912244005252e-05
2397,0.0002492350288090032
2398,0.00010052752117874501
2399,0.00015638252467621471
2400,7.661643307593716e-05
2401,9.703331676174195e-05
2402,8.428295595462043e-05
2403,9.269570613911481e-05
2404,0.00014221781894250228
2405,0.00016612269616765975
2406,0.0001778933698743607
2407,4.677974169154612e-05
2408,8.304839469813622e-05
2409,0.00010683291960065643
2410,9.873107040764083e-05
2411,0.00011083244957823277
2412,9.988827379518739e-05
2413,5.787187817902588e-05
2414,4.139520378865498e-05
2415,0.00016018597422760264
2416,0.00021492107752994744
2417,0.00011476335680600892
2418,0.00017234482008303626
2419,9.634208066539081e-05
2420,4.032706733585498e-05
2421,0.00014803069720019312
2422,0.0001596578995967631
2423,1.1461644291765441e-05
2424,0.00010920050656028277
2425,0.00010693104663169973
2426,0.00016230334176059385
2427,9.907944661427954e-05
2428,0.000203170917495983
2429,0.00015894648646529462
2430,0.00015352685866868118
2431,0.0001765892188771469
2432,0.00013457693340214474
2433,7.022142524666793e-05
2434,0.00015345598023742824
2435,0.00016572436993274068
2436,0.00010095858102556035
2437,0.00012904338337008965
2438,5.3860480440929745e-05
2439,8.90708927266648e-05
2440,0.00010531735908591273
2441,0.0002472191863904304
2442,0.00031624122200863206
2443,0.0001350464410067935
2444,0.00012843448911206928
2445,0.0001715031236603872
2446,0.00020707586682542392
2447,0.00015945441805044168
2448,8.161862227522307e-05
2449,0.00014230605167171492
2450,0.00013286443030135464
2451,0.00024146724151630932
2452,0.00013267589780235287
2453,4.0051858231466715e-05
2454,8.177065116951977e-05
2455,0.0002251203778977667
2456,8.335363911010697e-05
2457,0.00019518466083953996
2458,4.986143189777807e-05
2459,4.892246709302358e-05
2460,5.4904468253228335e-05
2461,0.00010554720348819992
2462,0.00014502698145530427
2463,4.073874698577927e-05
2464,2.7549594504097067e-05
2465,0.00020775172338384512
2466,0.00010531213666517975
2467,0.00021486543286079848
2468,0.00016279772930588275
2469,9.37757817990383e-05
2470,0.00012986204664404557
2471,5.45339237282854e-05
2472,5.290147760213372e-05
2473,0.00019148636367598938
2474,0.00018886051656020867
2475,0.00022323454738837844
2476,0.00010480265950850808
2477,0.00028692954578211737
2478,7.3587633081406e-05
2479,7.733235636804355e-05
2480,0.0001652593246898916
2481,0.0006240484582148995
2482,0.0001596458876612808
2483,0.00022607138421851513
2484,3.5570280442042534e-05
2485,0.0002091735738843188
2486,7.613123052639416e-05
2487,0.00011811815988496743
2488,7.714642061352447e-05
2489,0.00014195795604179904
2490,0.00016585138723385743
2491,0.00019493574637920898
2492,0.00014260699376251242
2493,0.00015100930532219072
2494,0.00013485630997902415
2495,0.00016653495769732257
2496,5.588276224939038e-05
2497,8.347583929849446e-05
2498,7.605380369780773e-05
2499,0.0001121293251958046
2500,0.00033991159664808785
2501,0.0002807305375122211
2502,0.00013109115204795177
2503,0.00013507732090531962
2504,0.00012522396728325083
2505,5.51822844086303e-05
2506,0.00016204154029970147
2507,0.00020567589372912147
2508,6.924099128091309e-05
2509,0.0001297798577636584
2510,0.00018784625904338936
2511,0.0001427689727747951
2512,0.00022460291114508501
2513,0.0001222258390249409
2514,4.9678841198927377e-05
2515,3.190452833523473e-05
2516,8.506568813586303e-05
2517,0.00020560422119881273
2518,0.00011006054049326909
2519,0.00029062583560856376
2520,4.1902321778896964e-05
2521,4.449688132590582e-05
2522,6.0288300236770046e-05
2523,0.0001796611429785381
2524,6.603782373236321e-05
2525,9.57833852645314e-05
2526,0.0001239368731612098
2527,0.0002298147396220555
2528,0.00019067606381635766
2529,0.00020967102645671066
2530,0.0001177225865689975
2531,0.00020924922905217236
2532,0.00010066512164116939
2533,0.0001475954539472875
2534,0.00011913717311405019
2535,0.00010068904776929943
2536,0.00012521724969462192
2537,5.158553289632935e-05
2538,0.00038023774117631136
2539,0.00012380763122730548
2540,8.985599722456458e-05
2541,7.258133916753073e-05
2542,0.0001459825587950748
2543,0.00024360793323141005
2544,0.00010577622278167577
2545,7.758432362211051e-05
2546,0.00018894432472221992
2547,0.0002731480602823654
2548,0.00013962345440486737
2549,0.00020218437265582544
2550,8.917146099321485e-05
2551,0.00017824609271216245
2552,4.8139840412907e-05
2553,0.00028222521091459237
2554,5.159249953913067e-05
2555,6.403156983237119e-05
2556,8.498079868915861e-05
2557,0.00015525530196561585
2558,0.0001796181524293894
2559,0.0001626739342644573
2560,1.4379726449516348e-05
2561,0.0001207009637949321
2562,8.352812400969817e-05
2563,0.00015138408866693364
2564,8.011219709059086e-05
2565,0.00019777135398023473
2566,8.719546394818855e-05
2567,0.00014254901800731022
2568,0.00019380481198768518
2569,0.00011955154912050435
2570,5.169154893392328e-05
2571,6.81273056045537e-05
2572,0.00011955486082110647
2573,7.336278209030805e-05
2574,5.441991005511439e-05
2575,0.00012673892279693987
2576,0.00017503299586958118
2577,0.00018195323217007824
2578,2.9766544265592497e-05
2579,0.00014739541522258866
2580,7.902768057362998e-05
2581,0.0001399362214840645
2582,6.345956692948574e-05
2583,0.00018005934624330239
2584,0.0003297217956800105
2585,0.00017937559017829324
2586,0.00010296426794703751
2587,0.00021561353935063528
2588,0.00011147970191576547
2589,5.173161117619315e-05
2590,0.00010195869983793019
2591,0.00022249793900819783
2592,0.0002884451345226604
2593,7.856756754194043e-05
2594,0.00013481517744741398
2595,0.0001221825104940885
2596,4.3203350973458195e-05
2597,0.00011421356910779106
2598,8.883454554071464e-05
2599,6.900588501194026e-05
2600,8.84642505116841e-05
2601,0.0005171797038100468
2602,4.977255691496202e-05
2603,0.00012468994396490463
2604,0.00021866664282556037
2605,3.7668902050468866e-05
2606,0.00010876216257875687
2607,6.325753419178954e-05
2608,0.000252458207375057
2609,8.678158458109394e-05
2610,0.00014603180456983849
2611,0.00023460095731517286
2612,0.00022560039432886352
2613,0.00012159172135502234
2614,0.00024340495913681542
2615,0.00015534137322703194
2616,0.00012797354055247136
2617,0.0001541962454253155
2618,8.250354169151972e-05
2619,0.00012846457900790386
2620,0.00013055778771853138
2621,0.0001443503351092351
2622,0.00010052600056661382
2623,6.43383495539354e-05
2624,6.210341175388397e-05
2625,8.397402589453525e-05
2626,5.9855358007524805e-05
2627,0.00012580267098382726
2628,0.00010294167645047212
2629,4.6224292597495186e-05
2630,0.00011363026807038876
2631,7.183591844874649e-05
2632,1.3293836030295136e-05
2633,0.0001668808963352898
2634,7.875897884496582e-05
2635,0.0001509722504283224
2636,6.573105451098469e-05
2637,0.00021231738221815237
2638,6.401094369269202e-05
2639,0.00012937110853601143
2640,0.00024510665014367537
2641,0.0004207135363605536
2642,0.0001327187759366184
2643,0.0001379709979423436
2644,5.570892843913646e-05
2645,0.0001116164710602712
2646,8.59195581347212e-05
2647,9.559906322013482e-05
2648,0.00019657432626946428
2649,9.324037992248447e-05
2650,0.00013574118306476543
2651,0.00010430053712135015
2652,7.918531313803075e-05
2653,9.623776748260749e-05
2654,6.615032378179789e-05
2655,0.00011174505089032843
2656,4.8498565992508404e-05
2657,6.93793709864027e-05
2658,0.0002022563676801776
2659,8.556873767413836e-05
2660,0.00014698089590647358
2661,0.0001836399525925644
2662,7.986321517616415e-05
2663,0.00011564168529426327
2664,0.00011597541449935464
2665,0.0003449509614985375
2666,0.0001673485559592487
2667,0.0002907348636934144
2668,9.24158602976273e-05
2669,0.00015894465964890654
2670,0.00024354779787603493
2671,0.00023390737953909578
2672,6.879031712479124e-05
2673,0.0001549772067516618
2674,8.797504270072949e-05
2675,3.758466953972781e-05
2676,0.00011957559391600852
2677,7.109908244263679e-05
2678,5.8750368507496306e-05
2679,9.017888779949256e-05
2680,8.04384935395348e-05
2681,8.908923166540306e-05
2682,3.4157852181891214e-05
2683,0.00020878347248541983
2684,0.00020514660368279656
2685,0.00018503349729921095
2686,0.00010493254277790269
2687,3.745050794521354e-05
2688,6.114603289358545e-05
2689,6.40994415468624e-05
2690,8.948825891589977e-05
2691,0.00012820574518913823
2692,5.5121429031161146e-05
2693,0.00022018145599049798
2694,8.202337788426359e-05
2695,6.2987515003585e-05
2696,0.00016805898756727685
2697,0.00016262977592371633
2698,8.497017722479659e-05
2699,0.000222374639270477
2700,0.00014804678234467506
2701,7.865938573024376e-05
2702,0.00019596306842497424
2703,0.0001469177238592951
2704,9.097499510636104e-05
2705,6.33430950786498e-05
2706,0.00016669121398814183
2707,9.286020046150761e-05
2708,0.00012243795671581563
2709,0.00010121184999948297
2710,0.00012068900542171465
2711,0.00015012115328598934
2712,0.00011203491497089116
2713,0.00012053056008239717
2714,9.451724791814965e-05
2715,0.0001489243959428985
2716,6.3082992399087e-05
2717,0.00011259970398093249
2718,0.0001154962200787643
2719,0.00011139351771969902
2720,8.291442596201745e-05
2721,9.14185892322829e-05
2722,6.630060540588494e-05
2723,0.00016327860896992545
2724,6.13401492236284e-05
2725,9.147399687963155e-05
2726,0.00020261506499880068
2727,0.00019622247084399638
2728,0.00013154116529822362
2729,0.00015453638184406048
2730,8.681970922861987e-05
2731,6.844410782716705e-05
2732,0.00019989446847652926
2733,0.00032686600119056526
2734,7.948052720080816e-05
2735,0.00024487602779013195
2736,8.160032883629084e-05
2737,7.065226390214321e-05
2738,0.0001473844272975819
2739,6.08480036872702e-05
2740,9.268353857592751e-05
2741,0.0001160668910939118
2742,3.9646750317981296e-05
2743,5.522624883322609e-05
2744,0.00017054972537669345
2745,7.673119289796017e-05
2746,5.9900975854704944e-05
2747,9.785266020143867e-05
2748,0.0001126219851459232
2749,0.0002874562263243898
2750,7.429325758237186e-05
2751,6.561004430447306e-05
2752,0.0001951075442279138
2753,0.0002197771356266144
2754,0.00011299852450245814
2755,0.00013423443411159317
2756,9.058580541109928e-05
2757,0.00026084333729210486
2758,0.00014438499730820963
2759,7.625365183416548e-05
2760,9.17955050330445e-05
2761,9.241618938554242e-05
2762,0.00014827905354146954
2763,9.64495354056102e-05
2764,6.86573433441452e-05
2765,0.00011385436010330328
2766,0.00022547336569398704
2767,1.5775636610390634e-05
2768,0.0001447885098696087
2769,7.819048280799826e-05
2770,6.964950513749348e-05
2771,5.8979897036017683e-05
2772,0.0003356790647276648
2773,0.00015307335475450056
2774,9.365666419444508e-05
2775,7.555755281175741e-05
2776,4.51757552873585e-05
2777,7.198356536515552e-05
2778,0.00011036427212945576
2779,0.00029883363772512854
2780,0.0001522271799005732
2781,7.723582935497154e-05
2782,0.00029844449588475647
2783,2.4384348802662723e-05
2784,0.0006678387667667774
2785,4.724862058300955e-05
2786,0.0003734397845163024
2787,0.0001842387388365229
2788,0.00016405061092855514
2789,0.0001336522930564348
2790,0.00018669859627456784
2791,0.00033644296800235064
2792,9.545390719013087e-05
2793,0.00013581311506770104
2794,0.00019822503309394995
2795,0.00016050516337946325
2796,3.83872860612216e-05
2797,0.00024088935212263985
2798,9.793631470121037e-05
2799,0.00012178290466814707
2800,9.507034811963351e-05
2801,0.00022562892230091507
2802,0.0003439189971618911
2803,0.00018007956476654384
2804,5.3213290612264613e-05
2805,0.00018954467901689795
2806,0.0002175860130180159
2807,0.0002001391881516092
2808,0.00016961853271274432
2809,0.00010910832709278523
2810,0.0002508048547970505
2811,0.00016869074903553356
2812,0.00017332637264020777
2813,0.00016798059137022747
2814,6.495357099273457e-05
2815,0.00011882737732516393
2816,0.00011518321268022782
2817,0.00011595848790698813
2818,0.00027207873998063507
2819,0.0001913402194584264
2820,2.3518168082204477e-05
2821,6.312272624429545e-05
2822,0.0002567642528259222
2823,8.760220261631505e-05
2824,7.226221364192728e-05
2825,0.00010733788699906131
2826,0.00010411102944362728
2827,3.904492005886253e-05
2828,6.503005922257234e-05
2829,8.072184638178463e-05
2830,9.818463575446228e-05
2831,9.382621748650139e-05
2832,9.812861537571564e-05
2833,0.0001870930851334835
2834,2.638583041881917e-05
2835,0.0001993354830149641
2836,0.0001398962661136664
2837,0.00011574332773911001
2838,5.946185499218666e-05
2839,0.00017539738535827815
2840,0.0002867031341087386
2841,0.0003518307470732602
2842,0.00014105047455986974
2843,0.00012492636941922468
2844,0.0002801189443230005
2845,0.00013255190010373304
2846,8.21620744432351e-05
2847,6.73979971943534e-05
2848,7.444947517396214e-05
2849,6.764357233212703e-05
2850,0.00010076961608292819
2851,7.173598870881441e-05
2852,0.00011484781862456708
2853,0.00022093443045824123
2854,0.00018788269501101228
2855,0.0002886820687089244
2856,8.925501016106758e-05
2857,4.534618620383845e-05
2858,6.942908250603133e-05
2859,4.790598158667297e-05
2860,7.274724024320065e-05
2861,0.00011676174880632497
2862,0.0001365121215319501
2863,0.00014241861505053953
2864,8.371913608086855e-05
2865,0.00019856581031863434
2866,0.00019575190550176076
2867,2.9773961737926687e-05
2868,0.00014115379452578217
2869,5.090884131999709e-05
2870,0.0001883592681000513
2871,0.00013377911864346018
2872,0.0001417594345780059
2873,8.80607599743983e-05
2874,8.905822948079362e-05
2875,6.272411461057165e-05
2876,0.00013349926896311402
2877,0.0002672572429155996
2878,0.00011624590216303847
2879,0.00011461503557886012
2880,0.0001434101344077799
2881,0.00012371468070516514
2882,6.754633191215802e-05
2883,0.00014966317177942786
2884,0.0001580994963957654
2885,0.0001374140033134712
2886,7.990039769660327e-05
2887,7.710319697181578e-05
2888,0.0004321285215237523
2889,0.0001256181291669546
2890,0.0001590430486060349
2891,0.00014346807314824912
2892,6.443681521740929e-05
2893,0.00016954585691419228
2894,0.0001117492779779862
2895,0.00023769952010970784
2896,0.0001380149877395836
2897,0.00013115854865568196
2898,8.863950352339993e-05
2899,3.8260700085043474e-05
2900,6.316096191703962e-05
2901,0.0001600464524158016
2902,7.940994439811858e-05
2903,0.0002505405585823059
2904,0.00012308735498596176
2905,0.00015451230393086814
2906,0.000180062626325753
2907,9.545498479490068e-05
2908,0.00014946959440312563
2909,0.0001223421915110856
2910,0.0001585641708738438
2911,0.00011497019024016609
2912,4.320447208573745e-05
2913,0.00010900990207648254
2914,9.761779523517748e-05
2915,9.934973466596824e-05
2916,0.00012932334070409876
2917,7.065539055056686e-05
2918,8.450502402360012e-05
2919,9.757025039900129e-05
2920,0.00014960046396737846
2921,4.0976165221373416e-05
2922,0.00014885877581656703
2923,0.00018378065142254962
2924,0.0001356422108424165
2925,0.00018101157878843164
2926,0.00020294532511902166
2927,0.0001456760649376059
2928,6.984276177456091e-05
2929,0.00022213918677639892
2930,0.00017125284093237408
2931,9.021195634023019e-05
2932,0.00014538331147932886
2933,0.00023490900126763424
2934,9.209707757468112e-05
2935,9.957931950950398e-05
2936,0.00012485451371614526
2937,0.00013360498708748855
2938,0.0001409442114876966
2939,0.00012467973232000977
2940,2.9335142000327972e-05
2941,5.071374006157304e-05
2942,0.0001198310642293328
2943,4.043169138112974e-05
2944,0.0001348448142817598
2945,0.0002532749995415336
2946,9.797501988954549e-05
2947,0.00011148576195686748
2948,0.00018702464322998427
2949,0.00010044098311970927
2950,0.0002410107202978543
2951,0.00020144990343133671
2952,0.00020452001768226925
2953,0.00020307529373903683
2954,8.270569896862018e-05
2955,6.980865226780271e-05
2956,8.826165205974538e-05
2957,0.0001804364927662699
2958,3.9774213107271585e-05
2959,0.00010143368753169632
2960,0.00012771365232483212
2961,0.00010002899863405799
2962,0.00016200402719409213
2963,0.0002492521449802549
2964,2.8359929560693224e-05
2965,0.00010918865812836445
2966,0.00031578816633531293
2967,0.00016659142865195123
2968,0.00019759537413546727
2969,0.00011658586289144792
2970,0.00017391373351047538
2971,0.00012316046488567442
2972,0.0001844606625958602
2973,9.545561171738433e-05
2974,0.00024362574184616444
2975,0.00018825000674195158
2976,0.0001790190266969849
2977,0.0001115253667924923
2978,0.0001546964479902487
2979,8.558248841617915e-05
2980,0.00014690628089666214
2981,0.00019498722544372438
2982,0.00022642435172814563
2983,0.00023349453995672552
2984,0.00022727050232392032
2985,0.0001859390361947972
2986,8.107545920389985e-05
2987,0.00013565843229140434
2988,6.746986524823942e-05
2989,0.00015789633204910065
2990,8.76471131355986e-05
2991,0.0001416607251035486
2992,0.00012811669655438715
2993,0.00013481318806181543
2994,0.00023763255552492247
2995,9.13599152014756e-05
2996,6.166696746171972e-05
2997,6.240767345518215e-05
2998,9.922121716721759e-05
2999,0.00012158652444110145
3000,0.0002112558461427807
3001,0.00016908592933386819
3002,2.7798037925708584e-05
3003,0.00015280509232248684
3004,9.086454349720445e-05
3005,0.00021649504652904966
3006,0.00022244599400259195
3007,9.93692632264202e-05
3008,0.00010850649237914263
3009,4.298856286431972e-05
3010,4.303771179819732e-05
3011,9.8972129911717e-05
3012,8.753685167511482e-05
3013,0.00013401042610441342
3014,3.4817507475106366e-05
3015,7.038660594197945e-05
3016,6.427474426943242e-05
3017,0.00018768405543742963
3018,0.00017456327916345134
3019,0.00012894463905610405
3020,0.00010527654781052374
3021,0.00022410294693820044
3022,0.00021050601574059316
3023,0.00012223170655664258
3024,9.698892019014693e-05
3025,5.53371174031784e-05
3026,0.00018962135011234234
3027,0.0003551145726819787
3028,0.0001799219255877736
3029,3.511005602262614e-05
3030,0.0002927177706294639
3031,0.00022483358333495626
3032,0.00012132776081020176
3033,0.00018246273165996215
3034,0.00013984590385074987
3035,0.00022307339562691394
3036,0.00017476614912894766
3037,2.3788144767626597e-05
3038,7.025092676220165e-05
3039,8.789624641529922e-05
3040,0.00011742465397495433
3041,7.77411317822957e-05
3042,7.156107104649817e-05
3043,3.713194518966048e-05
3044,7.558502591749322e-05
3045,0.00010512045349538913
3046,0.00012162456106374605
3047,0.00010223407266788425
3048,0.00010480375489373024
3049,5.760518346711444e-05
3050,0.00023650872899668435
3051,8.39765448551366e-05
3052,7.896942107655731e-05
3053,0.00015256660560601065
3054,0.00015150041214480827
3055,0.00018688086812797467
3056,8.716669479943516e-05
3057,0.00017964173468129252
3058,0.0001640331872083178
3059,0.0002576109724634451
3060,0.00012035019491081933
3061,0.00013627955126972236
3062,4.920058040684448e-05
3063,0.00027505817063635016
3064,0.0002897357766186734
3065,0.00017040307881311105
3066,5.595066887656483e-05
3067,0.00018963621170233323
3068,0.00011666008064970329
3069,0.00010913595082044288
3070,0.00031359061065045586
3071,0.000110739952960957
3072,0.00017842160151453263
3073,7.635065473789344e-05
3074,0.00010924417129217103
3075,6.86824279358284e-05
3076,0.00013211519921453468
3077,0.00012520079075573363
3078,5.320508394570491e-05
3079,0.00019915733759598122
3080,2.814551924004204e-05
3081,0.00024623000543271364
3082,0.00014577075989945449
3083,0.0002772931013207477
3084,0.00012605190786261166
3085,7.871062718085026e-05
3086,0.00010997446721339598
3087,0.00013415148902103883
3088,0.0002032522515075933
3089,0.00013277208171073577
3090,5.543978288288696e-05
3091,8.298356644566463e-05
3092,0.00016708846720023788
3093,0.00015005609049996923
3094,5.2097609774891766e-05
3095,0.0003861896286401627
3096,5.341251923513664e-05
3097,4.2944872984537734e-05
3098,0.00019913470958242164
3099,4.247500818775174e-05
3100,7.874258400119502e-05
3101,0.00010187239397453013
3102,4.2795477492198436e-05
3103,0.0001113564248491208
3104,6.055631890204795e-05
3105,0.0001857789960442546
3106,0.0001308440899061654
3107,6.13118433642639e-05
3108,0.0001689208156690471
3109,0.00012027041642808143
3110,0.0002096294361672143
3111,0.0001710033786157319
3112,6.670125477687368e-05
3113,8.604204008544049e-05
3114,9.110156374514598e-05
3115,7.050976451180063e-05
3116,6.091272655249981e-05
3117,9.331887150265261e-05
3118,0.00013997747629296699
3119,0.0001384700378545996
3120,5.909401558666957e-05
3121,7.829816763054256e-05
3122,6.326984700628982e-05
3123,8.485851700823952e-05
3124,0.00010565261988819622
3125,3.233441991527509e-05
3126,0.00017927101426672864
3127,6.358559013331153e-05
3128,2.6157793577882336e-05
3129,4.570798828147286e-05
3130,0.00022498772580373808
3131,8.676163401016726e-05
3132,0.00021943419184707787
3133,3.8483538577916135e-05
3134,0.0002360970151556975
3135,8.720917907994571e-05
3136,9.269745141892403e-05
3137,0.00020346043930995368
3138,0.00011649549966405375
3139,4.49323985474451e-05
3140,4.205665037371006e-05
3141,0.00015969198726964505
3142,0.00011609374105137252
3143,0.00011176807326813045
3144,3.057552837588225e-05
3145,0.0001317841267920493
3146,9.568321445618214e-05
3147,0.00011787304521720584
3148,0.00020705076357966818
3149,0.00010194129907327844
3150,0.00014290404778029948
3151,0.0002805575967154727
3152,6.463037896952973e-05
3153,5.7148897348316e-05
3154,0.0002100425516721028
3155,4.9021980803771246e-05
3156,6.31572621128149e-05
3157,0.00013816553360580352
3158,0.00011659021099963185
3159,0.0001551893199057858
3160,8.88786104966245e-05
3161,9.793400847741056e-05
3162,0.00015658613736844052
3163,0.00011054466413945891
3164,0.00010014957958288375
3165,0.00015570809456565607
3166,8.908055816187091e-05
3167,8.794833548866047e-05
3168,5.953973015236888e-05
3169,8.905293272982218e-05
3170,0.00023184888179758297
3171,0.00010016438915457355
3172,0.00028769375697398826
3173,8.033130370213504e-05
3174,0.0001849272422904853
3175,8.145372406020924e-05
3176,0.00020895161962705347
3177,8.526412115267122e-05
3178,8.684339459548622e-05
3179,5.027178573756138e-05
3180,0.00010946866289752573
3181,1.7034964940479537e-05
3182,0.00030909898751177716
3183,0.00023554920846931504
3184,7.449650955574691e-05
3185,3.707569260547311e-05
3186,0.00033877066038078175
3187,0.00010742113698827473
3188,7.496041784278812e-05
3189,0.00012534273025494434
3190,0.00010635403682797755
3191,7.690706576586732e-05
3192,0.00010959983814517649
3193,9.751321844602697e-05
3194,0.0003608507573699577
3195,8.964157905980886e-05
3196,0.0001468641766001724
3197,0.00018811362498436955
3198,0.00011027082507013423
3199,9.788822246141807e-05
3200,0.00013137940159132204
3201,0.0001636217861006564
3202,9.178638194789801e-05
3203,0.00011511658978314921
3204,0.0001229355311887751
3205,0.00018608773498899825
3206,0.00017904436012266894
3207,0.00017672654029213714
3208,0.00014067653841834423
3209,0.00018938605328374338
3210,0.00014736040253710914
3211,0.00010377010200963693
3212,0.0002080343972289246
3213,0.00015600861133015917
3214,0.00018503623057564706
3215,7.908347165392971e-05
3216,0.00017451132286236217
3217,0.00012005789440538989
3218,0.00018006607282020187
3219,7.302371831346487e-05
3220,0.0001736126042596569
3221,0.00010731981152105009
3222,4.431934659908062e-05
3223,0.00010684038698620082
3224,0.00010874357995640964
3225,0.00018325993221800794
3226,0.00015430566257029483
3227,0.0001502009816701889
3228,8.783147895900312e-05
3229,0.00022590495775573518
3230,6.810101549078661e-05
3231,0.00014856445772307094
3232,0.00030301410741114546
3233,0.00020087206716786838
3234,0.00025390113031141634
3235,9.602306392366431e-05
3236,7.834539702560239e-05
3237,0.0001291259647391702
3238,9.585547616040448e-05
3239,0.0002572964703004999
3240,9.598575316460036e-05
3241,0.00017851116278240844
3242,0.00020306204234452036
3243,6.93405528090694e-05
3244,0.00013510112239603528
3245,0.00024031518492474794
3246,0.00016681869316332752
3247,0.0001554843620996801
3248,3.3297884405570944e-05
3249,6.362122317706039e-05
3250,0.0001638664827379976
3251,0.00010404936758965012
3252,5.1773463138488e-05
3253,0.00015947869600985777
3254,7.753871040219049e-05
3255,0.00010917751712849777
3256,0.00021712123243537113
3257,0.0004002448217895967
3258,8.019146688645042e-05
3259,9.374371225780712e-05
3260,0.0001281613960241864
3261,4.5621018430801646e-05
3262,0.00015393866500026853
3263,0.0001719582298246508
3264,8.082642179945883e-05
3265,7.141376179516684e-05
3266,0.00022208593942745197
3267,7.26494302676588e-05
3268,8.249880641242206e-05
3269,4.536181878356633e-05
3270,6.307451142565417e-05
3271,4.0946811984733314e-05
3272,6.383053016089334e-05
3273,9.178548381473047e-05
3274,0.00010136431608145403
3275,0.00018105001016284836
3276,0.0001154539511593701
3277,0.00010768743840276
3278,0.00011441355615091123
3279,9.059374769497546e-05
3280,0.00023075258616831788
3281,5.05462955271884e-05
3282,0.00013660540115653023
3283,0.00019644212204886387
3284,9.043591538570807e-05
3285,0.00012042560846181656
3286,0.00046155129872034657
3287,0.00017538471960589576
3288,0.00010518296797193687
3289,9.989733804239973e-05
3290,5.996107731633756e-05
3291,0.0002333838495947449
3292,5.285008263186305e-05
3293,0.00012583553243919023
3294,0.00015452693501595528
3295,5.357279026816329e-05
3296,7.497777467691297e-05
3297,7.366241149346569e-05
3298,0.00012597668160535725
3299,8.565008441204251e-05
3300,0.00022030302031161134
3301,0.00012828580543368807
3302,0.00016709711500745663
3303,0.00013422193021070183
3304,0.00015460031010640395
3305,0.00017787479627157102
3306,0.0001702193138459865
3307,0.00019870735862392004
3308,5.282931513025663e-05
3309,8.746895958829264e-05
3310,8.966930029778674e-05
3311,0.0001233619530177878
3312,0.0003491397077420804
3313,0.00017884323555678483
3314,0.0001068120882867909
3315,0.00010479980808324838
3316,5.8334430368897265e-05
3317,0.00017470057629239284
3318,7.925289715198929e-05
3319,0.00020377045109233022
3320,0.00020900816412976057
3321,5.0157823057628956e-05
3322,8.922808423959218e-05
3323,0.00010104330695944372
3324,5.774147113026393e-05
3325,0.00016198675927565974
3326,0.00010622169865928331
3327,8.711753645088671e-05
3328,0.00011123086305063633
3329,0.00016942757081508236
3330,0.0001919592070946687
3331,0.00017774790380872308
3332,7.406913162592207e-05
3333,0.00010109788281126197
3334,8.440038395677775e-05
3335,5.551413796934922e-05
3336,0.00014997040934191939
3337,0.00023016821027582748
3338,0.00011597730995980873
3339,0.00016947960106796203
3340,9.211979244347196e-05
3341,0.00012475766284920215
3342,0.0003730253914135427
3343,0.00011748743870284233
3344,4.043638395828768e-05
3345,0.00022877053550985585
3346,8.336954147014137e-05
3347,0.00022073613907326207
3348,0.0001699198839331666
3349,0.00016848120938976635
3350,8.480954330566991e-05
3351,5.237755994823151e-05
3352,0.00015922358541605835
3353,0.00013534896409706686
3354,0.00011505160960591954
3355,0.00017580916933801298
3356,7.486835231176359e-05
3357,7.427021144590308e-05
3358,7.602770866898273e-05
3359,9.73222344245874e-05
3360,9.948776368614501e-05
3361,6.199470966614986e-05
3362,3.811271479996977e-05
3363,7.174404391780214e-05
3364,5.764980722738997e-05
3365,0.00014989140360899646
3366,9.698903124868931e-05
3367,0.0002318748953292875
3368,8.906518430970459e-05
3369,8.341771012044415e-05
3370,0.00010179820761621498
3371,0.00026239729928442763
3372,0.00011034123005183458
3373,0.0002758337767234258
3374,0.00025167795478124306
3375,6.286199918977872e-05
3376,8.059806607514276e-05
3377,0.0002156440110647325
3378,0.00011831125303660458
3379,7.411213697975737e-05
3380,6.495664214980771e-05
3381,4.903617746993524e-05
3382,0.00013354663607384378
3383,7.194886569676072e-05
3384,5.289137857821705e-05
3385,6.335982259905445e-05
3386,0.00022903753628498438
3387,4.697113176497982e-05
3388,0.0001350722156098327
3389,4.015890582806237e-05
3390,0.0001757102120132898
3391,0.00020157087970206796
3392,6.4477686965534e-05
3393,5.5408797632356874e-05
3394,0.00012655996050740556
3395,0.0001566264411697932
3396,5.9797015136508946e-05
3397,0.00019839439191252453
3398,0.00018676281403119473
3399,0.00012303338665551122
3400,0.00021455209372427415
3401,0.00019413897673634553
3402,7.116971573276464e-05
3403,5.91420999137217e-05
3404,8.52828736979597e-05
3405,8.354596404927571e-05
3406,3.271126316503658e-05
3407,0.0002936669317325527
3408,0.00015572545922411975
3409,0.00021737045226933915
3410,0.000161110577120188
3411,4.213955196284995e-05
3412,0.0001029061768223464
3413,0.00015013189954924118
3414,9.814279028934487e-05
3415,7.198908584572001e-05
3416,0.00017007233018060078
3417,0.00017564675381400281
3418,6.100530171171143e-05
3419,0.00014482342445448169
3420,0.00012706393014454866
3421,0.0002059247162122612
3422,0.00018936709094319426
3423,0.0002026052085089802
3424,6.199766175007415e-05
3425,8.799932866481664e-05
3426,0.0002561915301918881
3427,4.8211858321641494e-05
3428,9.021395390153077e-05
3429,0.00015312485083245249
3430,0.00028043980986641075
3431,0.00012175319353135222
3432,0.00044604095208614845
3433,7.872030412706738e-05
3434,9.463951485294551e-05
3435,0.00028431932938509586
3436,0.00016439910716242132
3437,6.736775038127324e-05
3438,7.781488535008309e-05
3439,0.00015857552696628454
3440,4.844729825757404e-05
3441,0.0001231764355901921
3442,0.0002035475084548949
3443,5.301751600771427e-05
3444,0.0001126367862620883
3445,0.00010516218636423323
3446,0.00011485452544627446
3447,4.850285715747291e-05
3448,0.00016998313212460698
3449,9.302228722478738e-05
3450,5.440247327150841e-05
3451,8.341153843865101e-05
3452,0.00016816005210078014
3453,0.00015812636305162595
3454,8.017171321215145e-05
3455,0.00017308384094262316
3456,0.0002850170189344235
3457,0.00016344619707900696
3458,0.00012064851612758208
3459,0.00013356938936240738
3460,0.00019631078195574462
3461,0.00012776973845589817
3462,5.3685550387600186e-05
3463,9.175523964765821e-05
3464,0.00018258226464495158
3465,4.477949445191516e-05
3466,0.00019249882997428931
3467,0.00017456890571819456
3468,5.243146504579668e-05
3469,0.00022142215516219698
3470,0.00016784780803083622
3471,0.00027653091258939976
3472,7.794800225489956e-05
3473,0.00023233587996965125
3474,8.2208026038113e-05
3475,9.354004496047225e-05
3476,5.990591928319505e-05
3477,7.896231196332923e-05
3478,7.104616179826365e-05
3479,0.00012728068240251943
3480,7.700672558825476e-05
3481,0.00048739154184727825
3482,0.0001584758960296127
3483,8.657675334574055e-05
3484,0.00010456997332482157
3485,6.151799889965204e-05
3486,0.000231114732901377
3487,0.00018805816692572965
3488,0.00014505987267801154
3489,9.677046077170959e-05
3490,8.426914264177197e-05
3491,0.00011429934462875596
3492,0.00013473718246855533
3493,0.00011099148410083778
3494,5.191280911825911e-05
3495,5.980183393725794e-05
3496,0.00010735668003184586
3497,0.00010585486911687872
3498,0.00015776766993203745
3499,4.8953157761839546e-05
3500,4.956758104989874e-05
3501,0.00016640380562822605
3502,9.326695153332362e-05
3503,6.727117125629899e-05
3504,0.00011328166476795329
3505,9.67412395639105e-05
3506,5.445798381877709e-05
3507,8.813123954833034e-05
3508,7.630142056181141e-05
3509,0.0002204732075646294
3510,0.00010024635690350338
3511,0.0001016086749203384
3512,3.379232952457926e-05
3513,0.00013952159597589419
3514,7.689324495040344e-05
3515,0.00024201724181192793
3516,0.00012583818786669868
3517,0.0001944284773268438
3518,9.038880603357565e-05
3519,0.00017648322449426848
3520,8.960202503446216e-05
3521,0.00010126429751053957
3522,0.00010027526031483247
3523,4.142417366276682e-05
3524,0.0001459660295692511
3525,0.00016507580108887215
3526,6.922087728701371e-05
3527,0.0001365405774141062
3528,0.00010588797790337947
3529,0.00014308739190385227
3530,0.00016899972835113724
3531,0.00013739303686132587
3532,7.985623717193745e-05
3533,6.575134553170418e-05
3534,0.0001552716054408381
3535,0.00011878654014704096
3536,6.376209529854224e-05
3537,9.942252825243338e-05
3538,0.00021079937439832358
3539,6.840774543856947e-05
3540,0.00012743937581777588
3541,0.00012644354091007954
3542,4.754773683645221e-05
3543,9.924608491859767e-05
3544,0.00028436741551277983
3545,8.309506305016186e-05
3546,0.00028124215978424363
3547,6.009001091190076e-05
3548,8.963911391091942e-05
3549,0.00010671909777759531
3550,0.00013532360453917823
3551,0.00015083696531434924
3552,0.00013748612187500345
3553,5.708031848839018e-05
3554,5.8520759597487024e-05
3555,9.825425908625246e-05
3556,0.00018063698531371693
3557,8.8926257559341e-05
3558,8.548691176520693e-05
3559,8.657778228997117e-05
3560,0.00011312133486822789
3561,4.697824434177497e-05
3562,0.00010869176612965327
3563,0.0001041898150125771
3564,5.148838539699232e-05
3565,0.00012334539500262137
3566,0.00010632849853495078
3567,0.00010658397655918032
3568,0.00016435674203989787
3569,1.3609521928164883e-05
3570,5.5582427192954775e-05
3571,0.0001423628506436804
3572,2.2397898448410967e-05
3573,8.073774811864696e-05
3574,0.00017666988011165251
3575,0.0002124798817831077
3576,4.8369775275642665e-05
3577,8.504096947953701e-05
3578,0.00017389369861436048
3579,0.00014125416855745556
3580,0.00016536886986575662
3581,0.00012310854047030238
3582,0.00010426537334835689
3583,0.0003243978371089381
3584,0.00045526777161495566
3585,3.332592157479676e-05
3586,0.0003287336961188206
3587,8.697467260921405e-05
3588,0.00013702439862846164
3589,0.0001719997168514104
3590,6.69378599488507e-05
3591,6.553812259740568e-05
3592,0.0003620798520497422
3593,9.820875960113898e-05
3594,0.0001720043073978692
3595,6.524858243589267e-05
3596,7.049629250723943e-05
3597,0.00013000332604652643
3598,7.10599724893531e-05
3599,7.230505918742247e-05
3600,7.418320626602786e-05
3601,0.00013133026385593065
3602,0.00013388465657995996
3603,0.00011347267397143911
3604,0.00012627727227025042
3605,0.00011026567656937386
3606,7.151388053187645e-05
3607,0.0001794993495349641
3608,0.00015651596143423399
3609,0.00014922249152035972
3610,0.00012222337411314164
3611,0.00021586826997145364
3612,0.00011013373403658316
3613,5.160181136303399e-05
3614,0.00021081782496336585
3615,0.00012183132387047981
3616,0.0001203404038684537
3617,0.00016644682354184537
3618,0.00014186304905423246
3619,0.00011809115761866356
3620,0.000130843651891707
3621,3.715174732664993e-05
3622,0.00011882729522473217
3623,8.780720973617813e-05
3624,0.00027656471996004485
3625,6.159627939551937e-05
3626,0.00014428178648277076
3627,0.0006185533310948492
3628,0.00013909818244788014
3629,0.00012622725457283059
3630,0.00036036555285860847
3631,0.0002812697584100949
3632,0.000172463327752215
3633,0.0002356173887870412
3634,0.0001772592152616137
3635,0.00010843782252070078
3636,5.450474317992944e-05
3637,0.00016660171715312055
3638,7.83351286012402e-05
3639,6.701789539167178e-05
3640,0.00022864451124700574
3641,0.00010323032123500062
3642,0.00012498624938116023
3643,0.00011998149824882413
3644,0.00018654287458062896
3645,0.00023251369088956165
3646,0.00010589031657928962
3647,0.0001155556445838827
3648,9.252557900009345e-05
3649,0.0001310212460105414
3650,5.0919933103049144e-05
3651,4.362274882534401e-05
3652,0.0002122767665628858
3653,0.00010273154859734209
3654,0.0001741890509521312
3655,6.820020442654144e-05
3656,0.00016997998891792195
3657,0.00014220296209510255
3658,0.00014349628341824467
3659,0.00011077052351677999
3660,0.0001059060179834274
3661,0.0001287444281877839
3662,4.5000822832031694e-05
3663,0.00019884753656916165
3664,7.95969191712872e-05
3665,0.00012733163033872285
3666,0.00019645131473754253
3667,9.019235204501351e-05
3668,0.000141285704046613
3669,3.556108833968996e-05
3670,0.0001118394329762299
3671,0.0005731646795681267
3672,0.00017600042161413065
3673,0.00011182407367692186
3674,5.322961564368698e-05
3675,0.00013313096750709283
3676,9.743857247867067e-05
3677,4.244327221189148e-05
3678,7.305555989043886e-05
3679,0.00011500218815486108
3680,0.0002944817242560445
3681,5.905041894590782e-05
3682,5.6449703472178e-05
3683,0.00016453458783494536
3684,0.00010989069038463178
3685,0.00015707951805418236
3686,0.00014251103587930824
3687,0.00015618178388644575
3688,0.00012741158016325507
3689,9.891628692789865e-05
3690,7.020002676177622e-05
3691,0.00017705574454387975
3692,0.00010292237499836124
3693,0.00016967885138986113
3694,7.671153811495538e-05
3695,0.00012693450837245046
3696,0.00017064157428959463
3697,7.891303737224548e-05
3698,4.7958842751371866e-05
3699,0.00015931569479007645
3700,0.00016888774541748154
3701,0.00019680943832972247
3702,0.00024180002256892654
3703,6.767852423615646e-05
3704,8.470100301218012e-05
3705,0.00014212381038278694
3706,4.967284419080291e-05
3707,0.00012468692750031884
3708,0.00017124457600218207
3709,9.714686371442016e-05
3710,8.454440074713206e-05
3711,6.768162946964547e-05
3712,0.00020887680000653962
3713,0.00019275748234228116
3714,0.00012444744453435466
3715,4.810032660598437e-05
3716,2.7214803070581803e-05
3717,0.00012395225043412188
3718,8.449608674395242e-05
3719,0.0001579763105290429
3720,9.994400109624635e-05
3721,7.631580997814328e-05
3722,2.6010149023600463e-05
3723,9.306928547230232e-05
3724,0.00011537141581436369
3725,0.0001263932255556422
3726,0.00011007199483894324
3727,0.00022428627311517205
3728,6.852014554178984e-05
3729,0.00020847943088777652
3730,0.0001928321724947588
3731,0.00010697819151996732
3732,9.069325993082194e-05
3733,1.5023988059340878e-05
3734,0.00023726596695332653
3735,0.00015612158849790734
3736,0.00013487598446660376
3737,8.504184180009301e-05
3738,9.419796215779784e-05
3739,0.0001151333402308691
3740,9.920574805984524e-05
3741,3.6436738797636304e-05
3742,9.110457773295914e-05
3743,0.0001652321709970025
3744,0.00012795336728705265
3745,6.490477806417544e-05
3746,0.00011803875019608066
3747,8.528882088452874e-05
3748,5.7909640848909276e-05
3749,0.00012100812022107611
3750,0.00014972375461307408
3751,0.00010682740539817651
3752,0.0001569422010061462
3753,0.00013449722239121487
3754,4.2849668621137415e-05
3755,0.00011174083019618886
3756,0.00013457240140156722
3757,0.00017962835029554353
3758,4.877359481219737e-05
3759,0.00039133891369621913
3760,9.577304783017987e-05
3761,0.0001588301189728375
3762,0.0001435226658893394
3763,9.400507088375474e-05
3764,0.00011897676184540982
3765,9.226616793614023e-05
3766,7.739982456791567e-05
3767,0.0003345296624439637
3768,0.00013383192692285436
3769,0.00019403524848102385
3770,9.143413540833707e-05
3771,0.00014541817268858272
3772,3.71889655691795e-05
3773,5.5620395377424566e-05
3774,3.288793125088828e-05
3775,0.000332412905306376
3776,0.00020652522575068862
3777,0.00010321318643689692
3778,0.0002118440776068382
3779,0.00014975644594654284
3780,9.986193899523473e-05
3781,7.303872338656216e-05
3782,9.034849763448806e-05
3783,0.0001702480081578226
3784,0.00027277023401521273
3785,9.59063190174058e-05
3786,0.00022634134184244473
3787,6.244278860722577e-05
3788,0.00010592921120632653
3789,0.00018384756138497044
3790,0.00011109798072406169
3791,7.200641945546253e-05
3792,0.00033395303509934005
3793,8.21006131401459e-05
3794,6.193032660128033e-05
3795,6.573834353960234e-05
3796,0.00015604176016757097
3797,0.00015931557515668992
3798,2.7558509133003717e-05
3799,0.00013186530400864912
3800,0.00013255414770741678
3801,8.194904404607733e-05
3802,0.00012421657769119888
3803,7.965720941494488e-05
3804,0.00014007288762392936
3805,0.00016829422623819033
3806,7.830986352379701e-05
3807,9.902197013626562e-05
3808,0.00017354273189842072
3809,0.00031559215271458307
3810,0.00019738019296017083
3811,0.0001731831783685716
3812,3.9930085350921086e-05
3813,7.15218798393028e-05
3814,5.6605167744981884e-05
3815,0.0001177077448408453
3816,9.036935385300097e-05
3817,3.0174641946054683e-05
3818,0.00013275733100821533
3819,0.00012125349431469534
3820,0.00011930881026342568
3821,0.00015539825277988123
3822,7.440948624134666e-05
3823,0.00015192358027299924
3824,0.00032150099686130006
3825,9.918996069949969e-05
3826,8.904510740580559e-05
3827,9.161120639915519e-05
3828,0.00011067358774466159
3829,9.673666457413386e-05
3830,5.471159841599468e-05
3831,0.00019101576558784144
3832,7.007126130945481e-05
3833,0.00010714308816582203
3834,8.509378034683468e-05
3835,0.00012556527972210722
3836,0.00011184199849439929
3837,0.0001172228514990159
3838,0.00010411260620814367
3839,8.191456035433646e-05
3840,0.00017905231405091257
3841,0.00010412358512148424
3842,6.549328186634026e-05
3843,0.00012604463282321068
3844,0.00013839805543057143
3845,6.907933166912242e-05
3846,0.0003799986708014983
3847,6.152832093586534e-05
3848,8.364609707822052e-05
3849,5.3155159331525406e-05
3850,0.00014061320794415762
3851,0.00011967551916335041
3852,0.00013777874518485511
3853,0.00011614743421964754
3854,8.291441744768507e-05
3855,0.00011905599651783992
3856,0.0003966115477099297
3857,0.00011705962652560254
3858,8.052706184001013e-05
3859,0.00011474041455039153
3860,0.00012019603473088719
3861,0.0002242469847227213
3862,0.00012264265936661335
3863,8.974727121574156e-05
3864,3.827758794074425e-05
3865,0.0001677217074087613
3866,0.00010510457668283999
3867,7.298875493798722e-05
3868,0.0001442194625706912
3869,0.0001493271952774991
3870,6.74217374138594e-05
3871,5.0168092480048994e-05
3872,0.00011441925807193843
3873,0.00023747685670035177
3874,6.676711140096124e-05
3875,0.00013979463880732949
3876,7.722410255003384e-05
3877,6.779730443757942e-05
3878,6.93553766272859e-05
3879,0.0002301176448785537
3880,0.00010969236357837682
3881,9.859133998563462e-05
3882,0.00010943358318108416
3883,0.00012522484458939742
3884,0.00014786847533275225
3885,0.00014282342691399156
3886,9.660527474229512e-05
3887,9.476545453591928e-05
3888,0.00010941716911897823
3889,0.00016772680817724273
3890,0.00013730387499187499
3891,7.160799473649091e-05
3892,8.658561123117292e-05
3893,0.00010049261790086556
3894,8.554633153233247e-05
3895,0.0001212678028260392
3896,0.00015515872665804788
3897,5.0889807802059083e-05
3898,3.836056693773591e-05
3899,9.281771516911325e-05
3900,9.16537407530987e-05
3901,1.2301686332476826e-05
3902,0.0001159876344172976
3903,5.5848742404053e-05
3904,0.00028004891028202876
3905,7.013335497621405e-05
3906,0.00010246575905694308
3907,6.385100067797643e-05
3908,0.00011015397762958829
3909,9.683054106400898e-05
3910,8.053654879831991e-05
3911,7.162201998014333e-05
3912,2.4363695239475345e-05
3913,7.344551062069903e-05
3914,4.170907111310534e-05
3915,0.00024324919408338046
3916,7.742352670112276e-05
3917,8.36063501656645e-05
3918,0.0001377306667257244
3919,4.4272060771450805e-05
3920,9.058615937136728e-05
3921,0.00014508509176753876
3922,0.00016072024906106864
3923,6.95957342219321e-05
3924,7.629634313647314e-05
3925,0.00016330311110604651
3926,0.00014227112906088353
3927,0.00011974425450081937
3928,0.00018793918149622474
3929,0.00013869657270606945
3930,5.96618981267681e-05
3931,0.00013844144580560518
3932,0.00020010018068621934
3933,8.30935067687875e-05
3934,0.00012568921570287313
3935,0.00014919108830940361
3936,0.00014240326282749738
3937,0.00016880165297594632
3938,0.0001685940121529923
3939,8.310929003631417e-05
3940,0.00033495256982864083
3941,8.716270089574685e-05
3942,0.0001710379573703421
3943,0.00018104897180479137
3944,0.00013699897636763991
3945,0.00012990162398987445
3946,9.846759740032524e-05
3947,9.0554210331917e-05
3948,0.00017831643969567717
3949,0.00012318330833408595
3950,0.00022905183189760514
3951,0.00013657011060872333
3952,0.00017188362570899485
3953,0.00016513713646615743
3954,0.00010457821967227774
3955,7.238838311799576e-05
3956,9.698971384982334e-05
3957,0.0001632470953374133
3958,9.08659628410255e-05
3959,0.00010839190129390794
3960,2.634423277083489e-05
3961,0.00012427452493716075
3962,0.00010244374490720644
3963,0.0002015335951192642
3964,7.131681102644454e-05
3965,3.0780954411598696e-05
3966,0.00015405715025739914
3967,0.00017556075052054874
3968,4.4666299218846304e-05
3969,0.00010495557616310502
3970,0.00024677820808162703
3971,5.263085642164893e-05
3972,0.00030196112015294044
3973,0.0002126868720896415
3974,9.036337962855472e-05
3975,3.748780724933186e-05
3976,0.00017031635699840528
3977,0.00016028763971780353
3978,0.00013760532935577495
3979,0.00013101611625727854
3980,5.875108581178466e-05
3981,0.00014078197978098029
3982,0.00013107328337365847
3983,0.000195557123769659
3984,0.00013519306732878906
3985,0.00012954628710703291
3986,0.00011934979279157166
3987,3.029169400311383e-05
3988,6.272087222158869e-05
3989,0.00018254609860783632
3990,5.7950446627077186e-05
3991,6.562518525204071e-05
3992,0.00020602949561076325
3993,0.0001019321771960411
3994,0.00016738547363931406
3995,0.00012821046243003962
3996,0.00016531545514206084
3997,0.00013109012800626216
3998,0.00013470015349459303
3999,2.3060514148215223e-05
4000,0.00022720041381554563
4001,0.0001499868968902349
4002,0.0001686809576937401
4003,0.00011845798426080267
4004,8.839644018198933e-05
4005,2.5169951644745898e-05
4006,5.495374734075596e-05
4007,0.00012213286602165554
4008,0.00040010219661880517
4009,9.760153627588622e-05
4010,4.6571380502327805e-05
4011,0.0002399869592819148
4012,0.00012952077028049536
4013,9.75018531209561e-05
4014,6.298544957069685e-05
4015,0.00013386935285890488
4016,0.0001179503300740996
4017,8.703020178770623e-05
4018,0.0001006086955845886
4019,5.6896556647880193e-05
4020,0.00037594717054667385
4021,0.0001131201375199858
4022,9.09459844156031e-05
4023,0.00011755154841799377
4024,5.0447375990735135e-05
4025,0.0001726234681740837
4026,0.00011536784301324012
4027,0.00012221800738957777
4028,8.248899078276486e-05
4029,0.00013014040447650727
4030,3.610501879183711e-05
4031,0.0001661641947973825
4032,9.701687437886235e-05
4033,9.179212582181005e-05
4034,9.703953916265574e-05
4035,0.00018325794990796594
4036,0.00016975719094474922
4037,0.0002082775498246581
4038,0.0001191899641300493
4039,3.0011286536159933e-05
4040,7.350299505751215e-05
4041,9.875017833984299e-05
4042,7.403863408896142e-05
4043,6.746331781448534e-05
4044,0.00027674788180316286
4045,0.00027882684190250624
4046,0.0002628448738501424
4047,9.392878700163518e-05
4048,0.00010898852899740276
4049,0.00013551945725617828
4050,0.00011657774564468894
4051,0.00020472691777071448
4052,0.00023742607010080507
4053,7.514216100361679e-05
4054,8.602419836276663e-05
4055,8.086124122734043e-05
4056,0.00015012601940218138
4057,0.0001352482841496606
4058,0.0001453550950140973
4059,5.82907339428276e-05
4060,8.885175578549107e-05
4061,0.00020737547945983808
4062,0.00012844931740202208
4063,0.00012857733594873088
4064,0.0002907489519042822
4065,6.590081523163696e-05
4066,0.00015743480917975158
4067,0.00010682055415867713
4068,0.00010130977598459332
4069,0.0001249236419560225
4070,9.067326442727065e-05
4071,0.0003777759005963724
4072,7.905670329706557e-05
4073,0.00016533081396544368
4074,0.00015683694595959672
4075,9.741522055658576e-05
4076,8.119197450618835e-05
4077,0.00011462953492475825
4078,0.00020878851148254957
4079,0.00026265923993123736
4080,0.00020620960504297569
4081,5.2545566357422114e-05
4082,0.00015624930314649027
4083,2.290264074828618e-05
4084,0.0001152460205844936
4085,0.00011713280335740709
4086,2.5377573722864702e-05
4087,8.830399574919051e-05
4088,9.211178476749533e-05
4089,0.00016318070282581997
4090,8.188136135348514e-05
4091,0.000100410816979349
4092,0.0002112853462267716
4093,9.977954366330411e-05
4094,0.0001551004065438768
4095,0.00015863672910780986
4096,5.611956808613268e-05
4097,0.00012654540110256166
4098,7.614373861522864e-05
4099,0.00013108345880019696
4100,0.0003795052147593966
4101,0.00023639739019998325
4102,0.0001997756368698796
4103,0.0001329007319454281
4104,0.00023413468167025908
4105,9.789786860602275e-05
4106,8.73321013834475e-05
4107,9.096517713177724e-05
4108,8.050498980751324e-05
4109,4.707812530117377e-05
4110,0.0003131331157995074
4111,0.00016165851179791673
4112,0.00016172282038596437
4113,4.689183000400151e-05
4114,0.00012515173005980113
4115,0.00014224609512680463
4116,0.0002548289540079165
4117,0.0001373017302467022
4118,9.031336104345182e-05
4119,4.594142549919666e-05
4120,0.00023562678759342977
4121,0.00017418015444624525
4122,9.652995120202829e-05
4123,0.0001232833180139138
4124,0.00014245347933965658
4125,0.00013313460730262505
4126,3.8068034272062654e-05
4127,4.1292405653882904e-05
4128,0.00018839059271157253
4129,4.9979073442587376e-05
4130,6.0732329938872075e-05
4131,4.2057425693158086e-05
4132,7.628252039137395e-05
4133,0.00013939700938926934
4134,0.00011856501074856823
4135,0.00012357726633360837
4136,0.00011506901074691291
4137,0.00010470094114114087
4138,0.00017282673404699843
4139,0.00010916442543220631
4140,0.00018461543667507805
4141,0.00014158139356732687
4142,0.0001479789935147058
4143,0.0001292037357021077
4144,0.00019426424863560802
4145,0.00015905275270354264
4146,0.00012922276068644918
4147,3.53902432643318e-05
4148,0.0001557599965369575
4149,0.00036254848815862076
4150,0.00017677667537089334
4151,0.0002141486060891796
4152,0.00012737529941646048
4153,0.00013704900267553572
4154,0.00011277355862707148
4155,3.354036181616496e-05
4156,0.00014258815510497793
4157,8.978198725021394e-05
4158,0.00022534208230744627
4159,0.00010739892308303976
4160,5.484463436747067e-05
4161,3.76571174172873e-05
4162,0.0001541277557265772
4163,0.0002459660286693311
4164,0.00010852211750330358
4165,9.432460203708696e-05
4166,0.00013281280019199055
4167,6.066560818015239e-05
4168,9.087265059327825e-05
4169,2.0915444191613445e-05
4170,0.00012075428354172762
4171,5.586308062320007e-05
4172,8.646085341505005e-05
4173,0.00021403062748998823
4174,0.00018038786672004107
4175,6.67017290979968e-05
4176,7.068950616451806e-05
4177,0.00032193078377642533
4178,0.00011766270059971335
4179,0.0002525839986232903
4180,0.0001857382831608146
4181,0.00012668378675394443
4182,0.00017652358269820925
4183,0.000311695652096724
4184,0.00010189076261082551
4185,0.00021333034091599375
4186,5.364055149276685e-05
4187,8.049954473058723e-05
4188,0.0001049107569071108
4189,9.475751362592781e-05
4190,5.8844825173552136e-05
4191,8.169690994022397e-05
4192,0.0001054995844835563
4193,4.459573699972908e-05
4194,0.00020886352014346877
4195,0.00019008127091255632
4196,0.00014025472899451292
4197,0.00010723312871752181
4198,0.0002188623919303461
4199,0.00023748787158912069
4200,5.2610946575866436e-05
4201,0.0001209578549534124
4202,0.00018515898739504273
4203,0.00010317988109127501
4204,0.00026784336518452295
4205,9.998787333842632e-05
4206,0.0001663731775648955
4207,0.00011485777156144545
4208,0.0001700507673623818
4209,0.0002740864536638266
4210,0.00015991421408817713
4211,0.00013714020069593576
4212,6.541664858248431e-05
4213,7.6736940127578e-05
4214,0.00011630040943979773
4215,8.770544523537274e-05
4216,4.255194857293241e-05
4217,9.594120324650531e-05
4218,3.7349693835305654e-05
4219,0.00012698320509635039
4220,0.0002348956141218222
4221,6.0165740853400035e-05
4222,7.73019077900348e-05
4223,0.00024637003453457224
4224,7.701213440562758e-05
4225,0.0001174366867529342
4226,9.812617031958378e-05
4227,0.00014312770963690707
4228,0.00012114431512220381
4229,6.561770640467727e-05
4230,4.7450507986695116e-05
4231,7.783600675480068e-05
4232,0.00010351795583679654
4233,0.0001565482126640383
4234,0.00013676540784850205
4235,0.00010035809100959899
4236,6.114430005218203e-05
4237,0.00019993072930068366
4238,5.470388335666854e-05
4239,0.0003211042002569692
4240,8.684365195054866e-05
4241,0.00019401874572071035
4242,9.31766928824145e-05
4243,0.00021675474866262359
4244,4.8949460738489456e-05
4245,4.250997913420168e-05
4246,0.00012060966253982325
4247,0.00023087049528669343
4248,9.097679068131658e-05
4249,5.206790565106056e-05
4250,7.536857775819381e-05
4251,0.00017559349919906973
4252,0.00017432909812131528
4253,0.00011088777922490561
4254,6.216416106064455e-05
4255,0.00010137155224502253
4256,5.740936488635847e-05
4257,0.0003268566750932788
4258,4.2857023210625086e-05
4259,8.877482393283125e-05
4260,9.112185754615855e-05
4261,0.00029397888899947443
4262,7.416246729736191e-05
4263,0.00020633598354198102
4264,7.066026637710717e-05
4265,0.00018147975240612798
4266,8.285417742801811e-05
4267,0.00010974537217834922
4268,0.00011324151608372869
4269,8.910776552948702e-05
4270,0.00010580955395138532
4271,0.00010953580826572285
4272,0.0001396257481866205
4273,0.0001221297073473676
4274,4.93102111612739e-05
4275,8.83824774544873e-05
4276,8.106201126372447e-05
4277,0.00024188129619118136
4278,0.0002434798249217732
4279,7.723368007293694e-05
4280,8.095095606209343e-05
4281,0.00011586204235031829
4282,0.00012127452458477042
4283,0.00011602098383375867
4284,0.0001633085875095945
4285,6.790930468019462e-05
4286,6.135114614919967e-05
4287,9.01097496338777e-05
4288,0.0001299139085506638
4289,0.00014280966722654418
4290,0.00018561873129333497
4291,8.121014039485178e-05
4292,7.322132374990549e-05
4293,8.237054071780058e-05
4294,0.00018126038576938552
4295,9.556144670173054e-05
4296,0.000130642694030007
4297,0.00011744126227767991
4298,5.52100317618623e-05
4299,0.00013503986374635546
4300,0.00023194196604186678
4301,6.18559752185575e-05
4302,0.00014519796749963538
4303,7.003407758048372e-05
4304,0.00014299665751457086
4305,0.00012244001417988494
4306,0.00011964449104634948
4307,7.067366981793542e-05
4308,4.370519143601191e-05
4309,0.00014269791221866557
4310,0.00018094955751329908
4311,0.00019730731320325107
4312,0.00012057721693535463
4313,0.0001883969219817988
4314,0.00011326820284875365
4315,0.00016515079751720422
4316,8.484199085848841e-05
4317,5.203004871481754e-05
4318,0.00017238955023412864
4319,0.00016213632119951158
4320,0.00014979750602765548
4321,0.00011919088105328318
4322,5.304988670937679e-05
4323,3.431160884927392e-05
4324,0.00010968899416058225
4325,0.00011919887496961673
4326,0.0001470334881395959
4327,8.453933147625142e-05
4328,8.65053427722607e-05
4329,0.000108911469817792
4330,7.772273775755696e-05
4331,5.520614951622064e-05
4332,7.364629669772309e-05
4333,0.00014820766954232675
4334,0.00014252043152384483
4335,0.00018925599521898737
4336,0.00011981535815734401
4337,0.0001341589244763854
4338,0.00016955773450779885
4339,0.00015559227722098542
4340,0.00013834336062343094
4341,0.00014105432446242123
4342,0.00010370208490652534
4343,8.465567397718975e-05
4344,0.00010778979458326093
4345,0.00012161159520976159
4346,0.00013144039383046631
4347,0.00012123662504121178
4348,7.55352088461336e-05
4349,8.786988628585801e-05
4350,0.00015939398191334677
4351,7.495884654059425e-05
4352,0.00013005835167288616
4353,0.00011629047864585932
4354,0.00015625885147219862
4355,4.088580224546462e-05
4356,4.06839475609462e-05
4357,6.207931010538487e-05
4358,8.631377826897105e-05
4359,0.00015344359124060895
4360,0.00010379845702665812
4361,0.0001503041023441937
4362,6.524354799710979e-05
4363,6.346899240186005e-05
4364,0.00010954723877324834
4365,7.55097219486948e-05
4366,7.183589158644114e-05
4367,4.013345370930017e-05
4368,5.9679174279862096e-05
4369,0.000283941812329889
4370,0.00020059292380868922
4371,0.00011698403939166075
4372,0.00018247528566148346
4373,0.0002194910394118874
4374,7.073736593303287e-05
4375,6.29892183067158e-05
4376,9.165778921720406e-05
4377,7.765307774343288e-05
4378,0.00011894857806202399
4379,9.622313332588347e-05
4380,8.465808119741201e-05
4381,3.0702279345081794e-05
4382,7.396309151978517e-05
4383,8.074911659421427e-05
4384,0.00011757050364359799
4385,0.00011530946357247784
4386,0.00021532083808272848
4387,0.00012201708249961191
4388,4.5676941575394e-05
4389,6.801911625159078e-05
4390,8.983603938765843e-05
4391,8.736060708937606e-05
4392,4.606029395678484e-05
4393,3.229264860308828e-05
4394,6.102297793460844e-05
4395,0.000101580826798638
4396,3.384324104511694e-05
4397,0.00014175767897000932
4398,0.00026811368127371274
4399,6.104889119137641e-05
4400,0.00012789898657961668
4401,9.889135029495123e-05
4402,0.00019344385632935097
4403,0.00010072834680076046
4404,0.00011973346408459203
4405,0.00011966276820950109
4406,0.0002589457393560031
4407,0.0001460373595553335
4408,0.00010815640660964259
4409,0.00012622866114893962
4410,0.0001772397551891592
4411,0.00010934695878496554
4412,5.0898345158389926e-05
4413,0.00013624818055660211
